"File_221110_221826 - RawData"
"Wavelength nm.","Abs."
300.00,-0.42789
300.50,-0.37839
301.00,-0.33293
301.50,-0.27910
302.00,-0.24399
302.50,-0.20387
303.00,-0.17418
303.50,-0.14738
304.00,-0.13071
304.50,-0.11095
305.00,-0.09488
305.50,-0.08751
306.00,-0.11026
306.50,-0.09673
307.00,-0.08508
307.50,-0.07265
308.00,-0.06238
308.50,-0.05707
309.00,-0.05016
309.50,-0.04420
310.00,-0.03690
310.50,-0.02916
311.00,-0.02885
311.50,-0.02406
312.00,-0.02426
312.50,-0.02200
313.00,-0.02203
313.50,-0.01979
314.00,-0.01938
314.50,-0.01801
315.00,-0.01750
315.50,-0.01617
316.00,-0.01567
316.50,-0.01448
317.00,-0.01448
317.50,-0.01436
318.00,-0.01379
318.50,-0.01314
319.00,-0.01222
319.50,-0.01273
320.00,-0.01337
320.50,-0.01395
321.00,-0.01457
321.50,-0.01448
322.00,-0.01489
322.50,-0.01633
323.00,-0.01601
323.50,-0.01616
324.00,-0.01587
324.50,-0.01553
325.00,-0.01604
325.50,-0.01559
326.00,-0.01581
326.50,-0.01611
327.00,-0.01645
327.50,-0.01666
328.00,-0.01660
328.50,-0.01709
329.00,-0.01773
329.50,-0.01805
330.00,-0.01830
330.50,-0.01880
331.00,-0.01912
331.50,-0.01891
332.00,-0.01894
332.50,-0.01891
333.00,-0.01929
333.50,-0.01965
334.00,-0.01935
334.50,-0.01982
335.00,-0.01994
335.50,-0.02010
336.00,-0.01965
336.50,-0.01991
337.00,-0.02019
337.50,-0.02066
338.00,-0.02060
338.50,-0.02104
339.00,-0.02118
339.50,-0.02155
340.00,-0.02264
340.50,-0.02403
341.00,-0.02168
341.50,-0.02145
342.00,-0.02151
342.50,-0.02165
343.00,-0.02153
343.50,-0.02174
344.00,-0.02170
344.50,-0.02162
345.00,-0.02185
345.50,-0.02196
346.00,-0.02200
346.50,-0.02194
347.00,-0.02194
347.50,-0.02220
348.00,-0.02203
348.50,-0.02216
349.00,-0.02229
349.50,-0.02255
350.00,-0.02226
350.50,-0.02257
351.00,-0.02248
351.50,-0.02277
352.00,-0.02296
352.50,-0.02258
353.00,-0.02248
353.50,-0.02216
354.00,-0.02245
354.50,-0.02243
355.00,-0.02249
355.50,-0.02223
356.00,-0.02267
356.50,-0.02264
357.00,-0.02258
357.50,-0.02272
358.00,-0.02274
358.50,-0.02243
359.00,-0.02232
359.50,-0.02240
360.00,-0.02249
360.50,-0.02281
361.00,-0.02280
361.50,-0.02263
362.00,-0.02240
362.50,-0.02229
363.00,-0.02258
363.50,-0.02263
364.00,-0.02267
364.50,-0.02278
365.00,-0.02277
365.50,-0.02264
366.00,-0.02251
366.50,-0.02248
367.00,-0.02228
367.50,-0.02242
368.00,-0.02249
368.50,-0.02243
369.00,-0.02232
369.50,-0.02238
370.00,-0.02220
370.50,-0.02243
371.00,-0.02254
371.50,-0.02238
372.00,-0.02222
372.50,-0.02220
373.00,-0.02211
373.50,-0.02225
374.00,-0.02234
374.50,-0.02216
375.00,-0.02197
375.50,-0.02188
376.00,-0.02213
376.50,-0.02220
377.00,-0.02213
377.50,-0.02194
378.00,-0.02187
378.50,-0.02197
379.00,-0.02190
379.50,-0.02187
380.00,-0.02197
380.50,-0.02190
381.00,-0.02185
381.50,-0.02184
382.00,-0.02173
382.50,-0.02165
383.00,-0.02168
383.50,-0.02180
384.00,-0.02197
384.50,-0.02194
385.00,-0.02185
385.50,-0.02184
386.00,-0.02211
386.50,-0.02229
387.00,-0.02203
387.50,-0.02200
388.00,-0.02188
388.50,-0.02176
389.00,-0.02193
389.50,-0.02185
390.00,-0.02179
390.50,-0.02177
391.00,-0.02173
391.50,-0.02177
392.00,-0.02184
392.50,-0.02180
393.00,-0.02164
393.50,-0.02161
394.00,-0.02147
394.50,-0.02161
395.00,-0.02165
395.50,-0.02171
396.00,-0.02171
396.50,-0.02167
397.00,-0.02161
397.50,-0.02159
398.00,-0.02171
398.50,-0.02174
399.00,-0.02162
399.50,-0.02155
400.00,-0.02158
400.50,-0.02167
401.00,-0.02167
401.50,-0.02165
402.00,-0.02151
402.50,-0.02142
403.00,-0.02150
403.50,-0.02151
404.00,-0.02155
404.50,-0.02153
405.00,-0.02145
405.50,-0.02138
406.00,-0.02133
406.50,-0.02138
407.00,-0.02147
407.50,-0.02144
408.00,-0.02132
408.50,-0.02118
409.00,-0.02116
409.50,-0.02130
410.00,-0.02132
410.50,-0.02130
411.00,-0.02121
411.50,-0.02113
412.00,-0.02110
412.50,-0.02119
413.00,-0.02118
413.50,-0.02116
414.00,-0.02115
414.50,-0.02094
415.00,-0.02087
415.50,-0.02098
416.00,-0.02109
416.50,-0.02115
417.00,-0.02107
417.50,-0.02100
418.00,-0.02094
418.50,-0.02090
419.00,-0.02098
419.50,-0.02094
420.00,-0.02087
420.50,-0.02083
421.00,-0.02081
421.50,-0.02083
422.00,-0.02095
422.50,-0.02089
423.00,-0.02098
423.50,-0.02089
424.00,-0.02087
424.50,-0.02086
425.00,-0.02078
425.50,-0.02083
426.00,-0.02084
426.50,-0.02087
427.00,-0.02086
427.50,-0.02078
428.00,-0.02069
428.50,-0.02071
429.00,-0.02077
429.50,-0.02080
430.00,-0.02087
430.50,-0.02071
431.00,-0.02054
431.50,-0.02036
432.00,-0.02032
432.50,-0.02046
433.00,-0.02061
433.50,-0.02055
434.00,-0.02054
434.50,-0.02040
435.00,-0.02032
435.50,-0.02037
436.00,-0.02042
436.50,-0.02051
437.00,-0.02051
437.50,-0.02048
438.00,-0.02034
438.50,-0.02028
439.00,-0.02023
439.50,-0.02028
440.00,-0.02036
440.50,-0.02040
441.00,-0.02032
441.50,-0.02026
442.00,-0.02017
442.50,-0.02014
443.00,-0.02022
443.50,-0.02028
444.00,-0.02034
444.50,-0.02037
445.00,-0.02039
445.50,-0.02020
446.00,-0.02010
446.50,-0.02002
447.00,-0.01997
447.50,-0.02000
448.00,-0.02007
448.50,-0.02010
449.00,-0.02007
449.50,-0.02010
450.00,-0.02023
450.50,-0.02029
451.00,-0.02028
451.50,-0.02023
452.00,-0.02014
452.50,-0.02002
453.00,-0.01991
453.50,-0.01987
454.00,-0.01991
454.50,-0.01996
455.00,-0.01994
455.50,-0.01990
456.00,-0.01987
456.50,-0.01984
457.00,-0.01978
457.50,-0.01971
458.00,-0.01973
458.50,-0.01985
459.00,-0.01999
459.50,-0.01999
460.00,-0.01987
460.50,-0.01979
461.00,-0.01971
461.50,-0.01968
462.00,-0.01971
462.50,-0.01976
463.00,-0.01976
463.50,-0.01979
464.00,-0.01965
464.50,-0.01964
465.00,-0.01955
465.50,-0.01947
466.00,-0.01953
466.50,-0.01961
467.00,-0.01971
467.50,-0.01967
468.00,-0.01970
468.50,-0.01964
469.00,-0.01949
469.50,-0.01952
470.00,-0.01952
470.50,-0.01950
471.00,-0.01959
471.50,-0.01950
472.00,-0.01953
472.50,-0.01955
473.00,-0.01938
473.50,-0.01935
474.00,-0.01930
474.50,-0.01936
475.00,-0.01944
475.50,-0.01945
476.00,-0.01944
476.50,-0.01950
477.00,-0.01944
477.50,-0.01939
478.00,-0.01929
478.50,-0.01933
479.00,-0.01935
479.50,-0.01941
480.00,-0.01939
480.50,-0.01939
481.00,-0.01927
481.50,-0.01921
482.00,-0.01918
482.50,-0.01912
483.00,-0.01910
483.50,-0.01920
484.00,-0.01924
484.50,-0.01915
485.00,-0.01910
485.50,-0.01912
486.00,-0.01910
486.50,-0.01909
487.00,-0.01901
487.50,-0.01906
488.00,-0.01909
488.50,-0.01912
489.00,-0.01915
489.50,-0.01912
490.00,-0.01912
490.50,-0.01901
491.00,-0.01895
491.50,-0.01889
492.00,-0.01894
492.50,-0.01898
493.00,-0.01910
493.50,-0.01918
494.00,-0.01912
494.50,-0.01901
495.00,-0.01883
495.50,-0.01880
496.00,-0.01883
496.50,-0.01888
497.00,-0.01884
497.50,-0.01883
498.00,-0.01886
498.50,-0.01880
499.00,-0.01875
499.50,-0.01869
500.00,-0.01875
500.50,-0.01868
501.00,-0.01875
501.50,-0.01878
502.00,-0.01881
502.50,-0.01891
503.00,-0.01889
503.50,-0.01877
504.00,-0.01875
504.50,-0.01877
505.00,-0.01878
505.50,-0.01872
506.00,-0.01880
506.50,-0.01888
507.00,-0.01878
507.50,-0.01872
508.00,-0.01866
508.50,-0.01859
509.00,-0.01848
509.50,-0.01839
510.00,-0.01845
510.50,-0.01849
511.00,-0.01848
511.50,-0.01854
512.00,-0.01857
512.50,-0.01865
513.00,-0.01857
513.50,-0.01857
514.00,-0.01849
514.50,-0.01845
515.00,-0.01846
515.50,-0.01837
516.00,-0.01830
516.50,-0.01840
517.00,-0.01843
517.50,-0.01849
518.00,-0.01842
518.50,-0.01839
519.00,-0.01837
519.50,-0.01834
520.00,-0.01830
520.50,-0.01823
521.00,-0.01820
521.50,-0.01831
522.00,-0.01846
522.50,-0.01836
523.00,-0.01822
523.50,-0.01823
524.00,-0.01830
524.50,-0.01826
525.00,-0.01826
525.50,-0.01814
526.00,-0.01814
526.50,-0.01820
527.00,-0.01825
527.50,-0.01826
528.00,-0.01826
528.50,-0.01822
529.00,-0.01822
529.50,-0.01817
530.00,-0.01816
530.50,-0.01804
531.00,-0.01802
531.50,-0.01817
532.00,-0.01825
532.50,-0.01817
533.00,-0.01813
533.50,-0.01808
534.00,-0.01801
534.50,-0.01799
535.00,-0.01790
535.50,-0.01793
536.00,-0.01802
536.50,-0.01797
537.00,-0.01801
537.50,-0.01790
538.00,-0.01785
538.50,-0.01793
539.00,-0.01794
539.50,-0.01788
540.00,-0.01785
540.50,-0.01787
541.00,-0.01782
541.50,-0.01782
542.00,-0.01781
542.50,-0.01788
543.00,-0.01791
543.50,-0.01801
544.00,-0.01797
544.50,-0.01793
545.00,-0.01779
545.50,-0.01759
546.00,-0.01756
546.50,-0.01765
547.00,-0.01767
547.50,-0.01770
548.00,-0.01768
548.50,-0.01765
549.00,-0.01762
549.50,-0.01759
550.00,-0.01759
550.50,-0.01759
551.00,-0.01752
551.50,-0.01749
552.00,-0.01755
552.50,-0.01750
553.00,-0.01747
553.50,-0.01747
554.00,-0.01759
554.50,-0.01750
555.00,-0.01753
555.50,-0.01758
556.00,-0.01758
556.50,-0.01756
557.00,-0.01752
557.50,-0.01738
558.00,-0.01733
558.50,-0.01743
559.00,-0.01749
559.50,-0.01736
560.00,-0.01724
560.50,-0.01732
561.00,-0.01750
561.50,-0.01735
562.00,-0.01712
562.50,-0.01706
563.00,-0.01729
563.50,-0.01727
564.00,-0.01720
564.50,-0.01724
565.00,-0.01730
565.50,-0.01730
566.00,-0.01726
566.50,-0.01729
567.00,-0.01730
567.50,-0.01738
568.00,-0.01741
568.50,-0.01730
569.00,-0.01718
569.50,-0.01721
570.00,-0.01721
570.50,-0.01723
571.00,-0.01717
571.50,-0.01707
572.00,-0.01717
572.50,-0.01721
573.00,-0.01723
573.50,-0.01720
574.00,-0.01717
574.50,-0.01709
575.00,-0.01704
575.50,-0.01701
576.00,-0.01703
576.50,-0.01706
577.00,-0.01703
577.50,-0.01711
578.00,-0.01723
578.50,-0.01729
579.00,-0.01724
579.50,-0.01718
580.00,-0.01714
580.50,-0.01701
581.00,-0.01701
581.50,-0.01691
582.00,-0.01694
582.50,-0.01700
583.00,-0.01703
583.50,-0.01698
584.00,-0.01692
584.50,-0.01689
585.00,-0.01689
585.50,-0.01683
586.00,-0.01677
586.50,-0.01688
587.00,-0.01688
587.50,-0.01691
588.00,-0.01686
588.50,-0.01682
589.00,-0.01680
589.50,-0.01674
590.00,-0.01675
590.50,-0.01680
591.00,-0.01680
591.50,-0.01683
592.00,-0.01689
592.50,-0.01680
593.00,-0.01666
593.50,-0.01659
594.00,-0.01660
594.50,-0.01657
595.00,-0.01662
595.50,-0.01675
596.00,-0.01665
596.50,-0.01665
597.00,-0.01674
597.50,-0.01668
598.00,-0.01662
598.50,-0.01657
599.00,-0.01663
599.50,-0.01674
600.00,-0.01662
600.50,-0.01649
601.00,-0.01646
601.50,-0.01639
602.00,-0.01642
602.50,-0.01651
603.00,-0.01649
603.50,-0.01649
604.00,-0.01654
604.50,-0.01654
605.00,-0.01657
605.50,-0.01657
606.00,-0.01656
606.50,-0.01656
607.00,-0.01649
607.50,-0.01651
608.00,-0.01648
608.50,-0.01639
609.00,-0.01636
609.50,-0.01636
610.00,-0.01630
610.50,-0.01627
611.00,-0.01633
611.50,-0.01636
612.00,-0.01636
612.50,-0.01631
613.00,-0.01636
613.50,-0.01648
614.00,-0.01642
614.50,-0.01628
615.00,-0.01613
615.50,-0.01613
616.00,-0.01617
616.50,-0.01619
617.00,-0.01611
617.50,-0.01611
618.00,-0.01611
618.50,-0.01620
619.00,-0.01624
619.50,-0.01630
620.00,-0.01620
620.50,-0.01627
621.00,-0.01631
621.50,-0.01616
622.00,-0.01604
622.50,-0.01598
623.00,-0.01590
623.50,-0.01599
624.00,-0.01607
624.50,-0.01605
625.00,-0.01601
625.50,-0.01608
626.00,-0.01611
626.50,-0.01627
627.00,-0.01622
627.50,-0.01613
628.00,-0.01604
628.50,-0.01604
629.00,-0.01598
629.50,-0.01584
630.00,-0.01587
630.50,-0.01576
631.00,-0.01564
631.50,-0.01579
632.00,-0.01588
632.50,-0.01588
633.00,-0.01591
633.50,-0.01591
634.00,-0.01588
634.50,-0.01582
635.00,-0.01582
635.50,-0.01581
636.00,-0.01585
636.50,-0.01584
637.00,-0.01578
637.50,-0.01579
638.00,-0.01572
638.50,-0.01572
639.00,-0.01573
639.50,-0.01572
640.00,-0.01575
640.50,-0.01581
641.00,-0.01596
641.50,-0.01604
642.00,-0.01596
642.50,-0.01596
643.00,-0.01601
643.50,-0.01591
644.00,-0.01581
644.50,-0.01575
645.00,-0.01566
645.50,-0.01558
646.00,-0.01553
646.50,-0.01550
647.00,-0.01550
647.50,-0.01546
648.00,-0.01552
648.50,-0.01556
649.00,-0.01569
649.50,-0.01570
650.00,-0.01570
650.50,-0.01558
651.00,-0.01555
651.50,-0.01563
652.00,-0.01567
652.50,-0.01564
653.00,-0.01553
653.50,-0.01549
654.00,-0.01544
654.50,-0.01546
655.00,-0.01553
655.50,-0.01549
656.00,-0.01552
656.50,-0.01555
657.00,-0.01544
657.50,-0.01544
658.00,-0.01546
658.50,-0.01559
659.00,-0.01559
659.50,-0.01553
660.00,-0.01544
660.50,-0.01538
661.00,-0.01549
661.50,-0.01538
662.00,-0.01530
662.50,-0.01527
663.00,-0.01529
663.50,-0.01524
664.00,-0.01527
664.50,-0.01534
665.00,-0.01537
665.50,-0.01541
666.00,-0.01540
666.50,-0.01532
667.00,-0.01532
667.50,-0.01534
668.00,-0.01537
668.50,-0.01532
669.00,-0.01534
669.50,-0.01526
670.00,-0.01524
670.50,-0.01526
671.00,-0.01523
671.50,-0.01514
672.00,-0.01514
672.50,-0.01512
673.00,-0.01524
673.50,-0.01530
674.00,-0.01543
674.50,-0.01538
675.00,-0.01541
675.50,-0.01523
676.00,-0.01520
676.50,-0.01524
677.00,-0.01518
677.50,-0.01517
678.00,-0.01506
678.50,-0.01497
679.00,-0.01503
679.50,-0.01500
680.00,-0.01491
680.50,-0.01498
681.00,-0.01501
681.50,-0.01503
682.00,-0.01506
682.50,-0.01505
683.00,-0.01506
683.50,-0.01514
684.00,-0.01517
684.50,-0.01508
685.00,-0.01509
685.50,-0.01511
686.00,-0.01506
686.50,-0.01505
687.00,-0.01508
687.50,-0.01500
688.00,-0.01498
688.50,-0.01498
689.00,-0.01500
689.50,-0.01492
690.00,-0.01485
690.50,-0.01474
691.00,-0.01476
691.50,-0.01488
692.00,-0.01491
692.50,-0.01491
693.00,-0.01491
693.50,-0.01494
694.00,-0.01491
694.50,-0.01483
695.00,-0.01486
695.50,-0.01480
696.00,-0.01476
696.50,-0.01479
697.00,-0.01472
697.50,-0.01468
698.00,-0.01462
698.50,-0.01468
699.00,-0.01468
699.50,-0.01466
700.00,-0.01457
700.50,-0.01468
701.00,-0.01468
701.50,-0.01472
702.00,-0.01474
702.50,-0.01479
703.00,-0.01479
703.50,-0.01471
704.00,-0.01471
704.50,-0.01477
705.00,-0.01476
705.50,-0.01474
706.00,-0.01463
706.50,-0.01447
707.00,-0.01443
707.50,-0.01440
708.00,-0.01433
708.50,-0.01439
709.00,-0.01451
709.50,-0.01454
710.00,-0.01465
710.50,-0.01465
711.00,-0.01466
711.50,-0.01471
712.00,-0.01471
712.50,-0.01471
713.00,-0.01468
713.50,-0.01460
714.00,-0.01456
714.50,-0.01468
715.00,-0.01457
715.50,-0.01451
716.00,-0.01445
716.50,-0.01439
717.00,-0.01437
717.50,-0.01434
718.00,-0.01442
718.50,-0.01436
719.00,-0.01440
719.50,-0.01443
720.00,-0.01437
720.50,-0.01433
721.00,-0.01428
721.50,-0.01430
722.00,-0.01430
722.50,-0.01434
723.00,-0.01431
723.50,-0.01424
724.00,-0.01433
724.50,-0.01433
725.00,-0.01425
725.50,-0.01419
726.00,-0.01422
726.50,-0.01421
727.00,-0.01421
727.50,-0.01427
728.00,-0.01416
728.50,-0.01414
729.00,-0.01422
729.50,-0.01418
730.00,-0.01422
730.50,-0.01425
731.00,-0.01428
731.50,-0.01433
732.00,-0.01427
732.50,-0.01425
733.00,-0.01428
733.50,-0.01431
734.00,-0.01421
734.50,-0.01419
735.00,-0.01421
735.50,-0.01413
736.00,-0.01404
736.50,-0.01401
737.00,-0.01390
737.50,-0.01392
738.00,-0.01396
738.50,-0.01401
739.00,-0.01402
739.50,-0.01404
740.00,-0.01405
740.50,-0.01410
741.00,-0.01418
741.50,-0.01416
742.00,-0.01411
742.50,-0.01418
743.00,-0.01416
743.50,-0.01408
744.00,-0.01407
744.50,-0.01405
745.00,-0.01402
745.50,-0.01401
746.00,-0.01404
746.50,-0.01392
747.00,-0.01384
747.50,-0.01385
748.00,-0.01389
748.50,-0.01385
749.00,-0.01381
749.50,-0.01379
750.00,-0.01385
750.50,-0.01396
751.00,-0.01404
751.50,-0.01401
752.00,-0.01404
752.50,-0.01413
753.00,-0.01408
753.50,-0.01401
754.00,-0.01398
754.50,-0.01390
755.00,-0.01378
755.50,-0.01390
756.00,-0.01385
756.50,-0.01387
757.00,-0.01392
757.50,-0.01373
758.00,-0.01358
758.50,-0.01357
759.00,-0.01361
759.50,-0.01364
760.00,-0.01373
760.50,-0.01372
761.00,-0.01372
761.50,-0.01379
762.00,-0.01381
762.50,-0.01384
763.00,-0.01387
763.50,-0.01389
764.00,-0.01395
764.50,-0.01398
765.00,-0.01395
765.50,-0.01385
766.00,-0.01385
766.50,-0.01379
767.00,-0.01375
767.50,-0.01363
768.00,-0.01353
768.50,-0.01363
769.00,-0.01370
769.50,-0.01360
770.00,-0.01352
770.50,-0.01358
771.00,-0.01363
771.50,-0.01367
772.00,-0.01363
772.50,-0.01364
773.00,-0.01363
773.50,-0.01366
774.00,-0.01367
774.50,-0.01370
775.00,-0.01378
775.50,-0.01366
776.00,-0.01363
776.50,-0.01357
777.00,-0.01358
777.50,-0.01358
778.00,-0.01360
778.50,-0.01350
779.00,-0.01344
779.50,-0.01343
780.00,-0.01340
780.50,-0.01338
781.00,-0.01340
781.50,-0.01341
782.00,-0.01347
782.50,-0.01344
783.00,-0.01344
783.50,-0.01346
784.00,-0.01347
784.50,-0.01353
785.00,-0.01358
785.50,-0.01358
786.00,-0.01358
786.50,-0.01358
787.00,-0.01357
787.50,-0.01357
788.00,-0.01353
788.50,-0.01347
789.00,-0.01344
789.50,-0.01343
790.00,-0.01341
790.50,-0.01340
791.00,-0.01329
791.50,-0.01329
792.00,-0.01332
792.50,-0.01321
793.00,-0.01315
793.50,-0.01309
794.00,-0.01317
794.50,-0.01328
795.00,-0.01328
795.50,-0.01323
796.00,-0.01321
796.50,-0.01315
797.00,-0.01324
797.50,-0.01335
798.00,-0.01341
798.50,-0.01347
799.00,-0.01340
799.50,-0.01335
800.00,-0.01321
800.50,-0.01334
801.00,-0.01346
801.50,-0.01346
802.00,-0.01343
802.50,-0.01321
803.00,-0.01309
803.50,-0.01323
804.00,-0.01315
804.50,-0.01315
805.00,-0.01311
805.50,-0.01305
806.00,-0.01305
806.50,-0.01297
807.00,-0.01294
807.50,-0.01303
808.00,-0.01305
808.50,-0.01302
809.00,-0.01303
809.50,-0.01314
810.00,-0.01305
810.50,-0.01317
811.00,-0.01317
811.50,-0.01315
812.00,-0.01311
812.50,-0.01308
813.00,-0.01315
813.50,-0.01320
814.00,-0.01315
814.50,-0.01311
815.00,-0.01315
815.50,-0.01315
816.00,-0.01306
816.50,-0.01297
817.00,-0.01289
817.50,-0.01286
818.00,-0.01291
818.50,-0.01283
819.00,-0.01282
819.50,-0.01286
820.00,-0.01286
820.50,-0.01279
821.00,-0.01280
821.50,-0.01286
822.00,-0.01291
822.50,-0.01286
823.00,-0.01286
823.50,-0.01294
824.00,-0.01299
824.50,-0.01295
825.00,-0.01291
825.50,-0.01291
826.00,-0.01295
826.50,-0.01302
827.00,-0.01300
827.50,-0.01308
828.00,-0.01309
828.50,-0.01311
829.00,-0.01309
829.50,-0.01289
830.00,-0.01274
830.50,-0.01280
831.00,-0.01282
831.50,-0.01270
832.00,-0.01265
832.50,-0.01263
833.00,-0.01260
833.50,-0.01263
834.00,-0.01265
834.50,-0.01257
835.00,-0.01265
835.50,-0.01274
836.00,-0.01283
836.50,-0.01283
837.00,-0.01285
837.50,-0.01286
838.00,-0.01289
838.50,-0.01292
839.00,-0.01288
839.50,-0.01285
840.00,-0.01283
840.50,-0.01276
841.00,-0.01280
841.50,-0.01280
842.00,-0.01273
842.50,-0.01271
843.00,-0.01262
843.50,-0.01247
844.00,-0.01247
844.50,-0.01256
845.00,-0.01256
845.50,-0.01259
846.00,-0.01260
846.50,-0.01259
847.00,-0.01247
847.50,-0.01247
848.00,-0.01259
848.50,-0.01260
849.00,-0.01262
849.50,-0.01273
850.00,-0.01279
850.50,-0.01279
851.00,-0.01276
851.50,-0.01270
852.00,-0.01265
852.50,-0.01270
853.00,-0.01271
853.50,-0.01265
854.00,-0.01247
854.50,-0.01250
855.00,-0.01248
855.50,-0.01260
856.00,-0.01265
856.50,-0.01268
857.00,-0.01253
857.50,-0.01250
858.00,-0.01242
858.50,-0.01239
859.00,-0.01236
859.50,-0.01228
860.00,-0.01222
860.50,-0.01231
861.00,-0.01239
861.50,-0.01241
862.00,-0.01241
862.50,-0.01247
863.00,-0.01251
863.50,-0.01245
864.00,-0.01244
864.50,-0.01247
865.00,-0.01250
865.50,-0.01257
866.00,-0.01262
866.50,-0.01262
867.00,-0.01263
867.50,-0.01256
868.00,-0.01251
868.50,-0.01247
869.00,-0.01244
869.50,-0.01242
870.00,-0.01239
870.50,-0.01233
871.00,-0.01222
871.50,-0.01221
872.00,-0.01216
872.50,-0.01218
873.00,-0.01219
873.50,-0.01219
874.00,-0.01215
874.50,-0.01219
875.00,-0.01221
875.50,-0.01221
876.00,-0.01224
876.50,-0.01219
877.00,-0.01224
877.50,-0.01233
878.00,-0.01234
878.50,-0.01234
879.00,-0.01239
879.50,-0.01242
880.00,-0.01239
880.50,-0.01234
881.00,-0.01231
881.50,-0.01230
882.00,-0.01230
882.50,-0.01234
883.00,-0.01244
883.50,-0.01237
884.00,-0.01230
884.50,-0.01227
885.00,-0.01225
885.50,-0.01213
886.00,-0.01205
886.50,-0.01199
887.00,-0.01199
887.50,-0.01198
888.00,-0.01201
888.50,-0.01207
889.00,-0.01207
889.50,-0.01213
890.00,-0.01216
890.50,-0.01216
891.00,-0.01204
891.50,-0.01196
892.00,-0.01201
892.50,-0.01198
893.00,-0.01204
893.50,-0.01210
894.00,-0.01213
894.50,-0.01225
895.00,-0.01234
895.50,-0.01234
896.00,-0.01227
896.50,-0.01218
897.00,-0.01204
897.50,-0.01201
898.00,-0.01201
898.50,-0.01212
899.00,-0.01215
899.50,-0.01218
900.00,-0.01213
900.50,-0.01201
901.00,-0.01183
901.50,-0.01189
902.00,-0.01198
902.50,-0.01202
903.00,-0.01196
903.50,-0.01183
904.00,-0.01169
904.50,-0.01170
905.00,-0.01166
905.50,-0.01169
906.00,-0.01176
906.50,-0.01180
907.00,-0.01173
907.50,-0.01172
908.00,-0.01180
908.50,-0.01172
909.00,-0.01170
909.50,-0.01190
910.00,-0.01204
910.50,-0.01198
911.00,-0.01192
911.50,-0.01210
912.00,-0.01227
912.50,-0.01221
913.00,-0.01212
913.50,-0.01201
914.00,-0.01202
914.50,-0.01215
915.00,-0.01225
915.50,-0.01207
916.00,-0.01183
916.50,-0.01184
917.00,-0.01187
917.50,-0.01184
918.00,-0.01183
918.50,-0.01164
919.00,-0.01144
919.50,-0.01161
920.00,-0.01167
920.50,-0.01164
921.00,-0.01161
921.50,-0.01164
922.00,-0.01176
922.50,-0.01173
923.00,-0.01164
923.50,-0.01166
924.00,-0.01172
924.50,-0.01170
925.00,-0.01170
925.50,-0.01184
926.00,-0.01196
926.50,-0.01176
927.00,-0.01175
927.50,-0.01195
928.00,-0.01212
928.50,-0.01208
929.00,-0.01195
929.50,-0.01208
930.00,-0.01218
930.50,-0.01199
931.00,-0.01180
931.50,-0.01201
932.00,-0.01205
932.50,-0.01178
933.00,-0.01164
933.50,-0.01154
934.00,-0.01151
934.50,-0.01163
935.00,-0.01170
935.50,-0.01149
936.00,-0.01137
936.50,-0.01149
937.00,-0.01155
937.50,-0.01144
938.00,-0.01138
938.50,-0.01143
939.00,-0.01151
939.50,-0.01141
940.00,-0.01138
940.50,-0.01152
941.00,-0.01176
941.50,-0.01176
942.00,-0.01170
942.50,-0.01169
943.00,-0.01164
943.50,-0.01178
944.00,-0.01192
944.50,-0.01193
945.00,-0.01190
945.50,-0.01186
946.00,-0.01181
946.50,-0.01187
947.00,-0.01190
947.50,-0.01186
948.00,-0.01172
948.50,-0.01170
949.00,-0.01173
949.50,-0.01178
950.00,-0.01169
950.50,-0.01166
951.00,-0.01164
951.50,-0.01155
952.00,-0.01146
952.50,-0.01141
953.00,-0.01134
953.50,-0.01140
954.00,-0.01141
954.50,-0.01143
955.00,-0.01149
955.50,-0.01149
956.00,-0.01143
956.50,-0.01143
957.00,-0.01141
957.50,-0.01146
958.00,-0.01147
958.50,-0.01155
959.00,-0.01158
959.50,-0.01161
960.00,-0.01155
960.50,-0.01163
961.00,-0.01166
961.50,-0.01166
962.00,-0.01164
962.50,-0.01167
963.00,-0.01172
963.50,-0.01175
964.00,-0.01172
964.50,-0.01166
965.00,-0.01164
965.50,-0.01161
966.00,-0.01164
966.50,-0.01155
967.00,-0.01143
967.50,-0.01140
968.00,-0.01143
968.50,-0.01137
969.00,-0.01131
969.50,-0.01128
970.00,-0.01122
970.50,-0.01120
971.00,-0.01108
971.50,-0.01111
972.00,-0.01109
972.50,-0.01115
973.00,-0.01123
973.50,-0.01128
974.00,-0.01134
974.50,-0.01135
975.00,-0.01138
975.50,-0.01137
976.00,-0.01138
976.50,-0.01132
977.00,-0.01126
977.50,-0.01131
978.00,-0.01140
978.50,-0.01146
979.00,-0.01144
979.50,-0.01152
980.00,-0.01167
980.50,-0.01164
981.00,-0.01161
981.50,-0.01157
982.00,-0.01141
982.50,-0.01138
983.00,-0.01137
983.50,-0.01131
984.00,-0.01131
984.50,-0.01129
985.00,-0.01122
985.50,-0.01115
986.00,-0.01109
986.50,-0.01114
987.00,-0.01108
987.50,-0.01117
988.00,-0.01118
988.50,-0.01118
989.00,-0.01112
989.50,-0.01102
990.00,-0.01097
990.50,-0.01103
991.00,-0.01096
991.50,-0.01102
992.00,-0.01100
992.50,-0.01108
993.00,-0.01108
993.50,-0.01111
994.00,-0.01111
994.50,-0.01112
995.00,-0.01120
995.50,-0.01125
996.00,-0.01123
996.50,-0.01128
997.00,-0.01125
997.50,-0.01128
998.00,-0.01131
998.50,-0.01134
999.00,-0.01143
999.50,-0.01143
1000.00,-0.01138
1000.50,-0.01135
1001.00,-0.01132
1001.50,-0.01134
1002.00,-0.01138
1002.50,-0.01140
1003.00,-0.01140
1003.50,-0.01131
1004.00,-0.01128
1004.50,-0.01122
1005.00,-0.01117
1005.50,-0.01108
1006.00,-0.01106
1006.50,-0.01112
1007.00,-0.01111
1007.50,-0.01102
1008.00,-0.01096
1008.50,-0.01096
1009.00,-0.01091
1009.50,-0.01083
1010.00,-0.01076
1010.50,-0.01085
1011.00,-0.01088
1011.50,-0.01083
1012.00,-0.01082
1012.50,-0.01077
1013.00,-0.01077
1013.50,-0.01077
1014.00,-0.01080
1014.50,-0.01082
1015.00,-0.01088
1015.50,-0.01091
1016.00,-0.01100
1016.50,-0.01096
1017.00,-0.01097
1017.50,-0.01096
1018.00,-0.01091
1018.50,-0.01094
1019.00,-0.01089
1019.50,-0.01091
1020.00,-0.01099
1020.50,-0.01102
1021.00,-0.01099
1021.50,-0.01097
1022.00,-0.01102
1022.50,-0.01102
1023.00,-0.01100
1023.50,-0.01099
1024.00,-0.01093
1024.50,-0.01097
1025.00,-0.01096
1025.50,-0.01088
1026.00,-0.01086
1026.50,-0.01082
1027.00,-0.01076
1027.50,-0.01080
1028.00,-0.01083
1028.50,-0.01079
1029.00,-0.01071
1029.50,-0.01073
1030.00,-0.01065
1030.50,-0.01062
1031.00,-0.01054
1031.50,-0.01051
1032.00,-0.01054
1032.50,-0.01062
1033.00,-0.01068
1033.50,-0.01070
1034.00,-0.01064
1034.50,-0.01062
1035.00,-0.01057
1035.50,-0.01060
1036.00,-0.01067
1036.50,-0.01074
1037.00,-0.01085
1037.50,-0.01091
1038.00,-0.01096
1038.50,-0.01089
1039.00,-0.01082
1039.50,-0.01082
1040.00,-0.01077
1040.50,-0.01089
1041.00,-0.01088
1041.50,-0.01096
1042.00,-0.01109
1042.50,-0.01102
1043.00,-0.01100
1043.50,-0.01096
1044.00,-0.01086
1044.50,-0.01080
1045.00,-0.01077
1045.50,-0.01077
1046.00,-0.01074
1046.50,-0.01070
1047.00,-0.01073
1047.50,-0.01062
1048.00,-0.01050
1048.50,-0.01056
1049.00,-0.01054
1049.50,-0.01056
1050.00,-0.01060
1050.50,-0.01059
1051.00,-0.01050
1051.50,-0.01038
1052.00,-0.01018
1052.50,-0.01016
1053.00,-0.01031
1053.50,-0.01044
1054.00,-0.01050
1054.50,-0.01025
1055.00,-0.01012
1055.50,-0.01025
1056.00,-0.01042
1056.50,-0.01045
1057.00,-0.01060
1057.50,-0.01051
1058.00,-0.01038
1058.50,-0.01038
1059.00,-0.01045
1059.50,-0.01057
1060.00,-0.01073
1060.50,-0.01070
1061.00,-0.01065
1061.50,-0.01059
1062.00,-0.01048
1062.50,-0.01060
1063.00,-0.01073
1063.50,-0.01077
1064.00,-0.01080
1064.50,-0.01068
1065.00,-0.01056
1065.50,-0.01057
1066.00,-0.01067
1066.50,-0.01062
1067.00,-0.01048
1067.50,-0.01044
1068.00,-0.01035
1068.50,-0.01045
1069.00,-0.01042
1069.50,-0.01030
1070.00,-0.01019
1070.50,-0.01015
1071.00,-0.01022
1071.50,-0.01022
1072.00,-0.01021
1072.50,-0.01022
1073.00,-0.01013
1073.50,-0.01016
1074.00,-0.01015
1074.50,-0.01006
1075.00,-0.00992
1075.50,-0.01010
1076.00,-0.01025
1076.50,-0.01006
1077.00,-0.00984
1077.50,-0.00995
1078.00,-0.01021
1078.50,-0.01028
1079.00,-0.01025
1079.50,-0.01033
1080.00,-0.01030
1080.50,-0.01050
1081.00,-0.01064
1081.50,-0.01041
1082.00,-0.01016
1082.50,-0.01019
1083.00,-0.01038
1083.50,-0.01053
1084.00,-0.01051
1084.50,-0.01039
1085.00,-0.01027
1085.50,-0.01042
1086.00,-0.01053
1086.50,-0.01041
1087.00,-0.01036
1087.50,-0.01035
1088.00,-0.01031
1088.50,-0.01042
1089.00,-0.01039
1089.50,-0.01028
1090.00,-0.01025
1090.50,-0.01016
1091.00,-0.01010
1091.50,-0.01015
1092.00,-0.01013
1092.50,-0.01004
1093.00,-0.00996
1093.50,-0.00999
1094.00,-0.00993
1094.50,-0.00986
1095.00,-0.00975
1095.50,-0.00967
1096.00,-0.00964
1096.50,-0.00980
1097.00,-0.00996
1097.50,-0.00986
1098.00,-0.00970
1098.50,-0.00981
1099.00,-0.00986
1099.50,-0.00998
1100.00,-0.00993
