"File_221110_221531 - RawData"
"Wavelength nm.";"Abs."
300,00;-1,65318
300,50;-1,57143
301,00;-1,49529
301,50;-1,41280
302,00;-1,33772
302,50;-1,26268
303,00;-1,19426
303,50;-1,12688
304,00;-1,06902
304,50;-1,01035
305,00;-0,95427
305,50;-0,90012
306,00;-0,86269
306,50;-0,80890
307,00;-0,76106
307,50;-0,71460
308,00;-0,67024
308,50;-0,62906
309,00;-0,59528
309,50;-0,55583
310,00;-0,51903
310,50;-0,48592
311,00;-0,45456
311,50;-0,42607
312,00;-0,40208
312,50;-0,37750
313,00;-0,35342
313,50;-0,33070
314,00;-0,31175
314,50;-0,29262
315,00;-0,27542
315,50;-0,25925
316,00;-0,24504
316,50;-0,23012
317,00;-0,21712
317,50;-0,20456
318,00;-0,19302
318,50;-0,18259
319,00;-0,17291
319,50;-0,16333
320,00;-0,15529
320,50;-0,14700
321,00;-0,13962
321,50;-0,13322
322,00;-0,12720
322,50;-0,12123
323,00;-0,11577
323,50;-0,11029
324,00;-0,10533
324,50;-0,10069
325,00;-0,09641
325,50;-0,09268
326,00;-0,08887
326,50;-0,08533
327,00;-0,08170
327,50;-0,07867
328,00;-0,07561
328,50;-0,07281
329,00;-0,07011
329,50;-0,06833
330,00;-0,06668
330,50;-0,06450
331,00;-0,06261
331,50;-0,06081
332,00;-0,05922
332,50;-0,05731
333,00;-0,05589
333,50;-0,05482
334,00;-0,05396
334,50;-0,05231
335,00;-0,05092
335,50;-0,04971
336,00;-0,04843
336,50;-0,04709
337,00;-0,04567
337,50;-0,04514
338,00;-0,04492
338,50;-0,04402
339,00;-0,04324
339,50;-0,04272
340,00;-0,04376
340,50;-0,04411
341,00;-0,03828
341,50;-0,03702
342,00;-0,03702
342,50;-0,03651
343,00;-0,03563
343,50;-0,03531
344,00;-0,03513
344,50;-0,03477
345,00;-0,03407
345,50;-0,03380
346,00;-0,03358
346,50;-0,03371
347,00;-0,03307
347,50;-0,03273
348,00;-0,03264
348,50;-0,03268
349,00;-0,03238
349,50;-0,03203
350,00;-0,03181
350,50;-0,03185
351,00;-0,03177
351,50;-0,03151
352,00;-0,03127
352,50;-0,03114
353,00;-0,03082
353,50;-0,03038
354,00;-0,03017
354,50;-0,03014
355,00;-0,03027
355,50;-0,03024
356,00;-0,02986
356,50;-0,02977
357,00;-0,03003
357,50;-0,03017
358,00;-0,02980
358,50;-0,02934
359,00;-0,02924
359,50;-0,02937
360,00;-0,02942
360,50;-0,02902
361,00;-0,02875
361,50;-0,02878
362,00;-0,02885
362,50;-0,02893
363,00;-0,02863
363,50;-0,02844
364,00;-0,02893
364,50;-0,02914
365,00;-0,02899
365,50;-0,02859
366,00;-0,02831
366,50;-0,02850
367,00;-0,02856
367,50;-0,02849
368,00;-0,02820
368,50;-0,02800
369,00;-0,02829
369,50;-0,02840
370,00;-0,02817
370,50;-0,02803
371,00;-0,02800
371,50;-0,02817
372,00;-0,02831
372,50;-0,02811
373,00;-0,02792
373,50;-0,02789
374,00;-0,02826
374,50;-0,02844
375,00;-0,02827
375,50;-0,02805
376,00;-0,02795
376,50;-0,02820
377,00;-0,02861
377,50;-0,02826
378,00;-0,02800
378,50;-0,02797
379,00;-0,02809
379,50;-0,02837
380,00;-0,02847
380,50;-0,02815
381,00;-0,02783
381,50;-0,02786
382,00;-0,02818
382,50;-0,02826
383,00;-0,02782
383,50;-0,02754
384,00;-0,02759
384,50;-0,02769
385,00;-0,02798
385,50;-0,02791
386,00;-0,02765
386,50;-0,02745
387,00;-0,02751
387,50;-0,02780
388,00;-0,02774
388,50;-0,02737
389,00;-0,02711
389,50;-0,02695
390,00;-0,02696
390,50;-0,02728
391,00;-0,02751
391,50;-0,02725
392,00;-0,02678
392,50;-0,02679
393,00;-0,02687
393,50;-0,02710
394,00;-0,02701
394,50;-0,02676
395,00;-0,02638
395,50;-0,02647
396,00;-0,02690
396,50;-0,02708
397,00;-0,02682
397,50;-0,02647
398,00;-0,02621
398,50;-0,02640
399,00;-0,02678
399,50;-0,02692
400,00;-0,02663
400,50;-0,02618
401,00;-0,02609
401,50;-0,02625
402,00;-0,02664
402,50;-0,02679
403,00;-0,02640
403,50;-0,02597
404,00;-0,02586
404,50;-0,02625
405,00;-0,02660
405,50;-0,02664
406,00;-0,02626
406,50;-0,02588
407,00;-0,02588
407,50;-0,02605
408,00;-0,02641
408,50;-0,02655
409,00;-0,02626
409,50;-0,02596
410,00;-0,02568
410,50;-0,02585
411,00;-0,02625
411,50;-0,02643
412,00;-0,02629
412,50;-0,02589
413,00;-0,02568
413,50;-0,02573
414,00;-0,02606
414,50;-0,02637
415,00;-0,02629
415,50;-0,02599
416,00;-0,02568
416,50;-0,02556
417,00;-0,02586
417,50;-0,02620
418,00;-0,02632
418,50;-0,02611
419,00;-0,02579
419,50;-0,02550
420,00;-0,02557
420,50;-0,02589
421,00;-0,02623
421,50;-0,02618
422,00;-0,02588
422,50;-0,02550
423,00;-0,02533
423,50;-0,02557
424,00;-0,02602
424,50;-0,02623
425,00;-0,02605
425,50;-0,02559
426,00;-0,02533
426,50;-0,02541
427,00;-0,02570
427,50;-0,02606
428,00;-0,02614
428,50;-0,02583
429,00;-0,02538
429,50;-0,02524
430,00;-0,02548
430,50;-0,02577
431,00;-0,02591
431,50;-0,02586
432,00;-0,02554
432,50;-0,02515
433,00;-0,02499
433,50;-0,02504
434,00;-0,02545
434,50;-0,02582
435,00;-0,02577
435,50;-0,02542
436,00;-0,02510
436,50;-0,02486
437,00;-0,02507
437,50;-0,02545
438,00;-0,02571
438,50;-0,02582
439,00;-0,02548
439,50;-0,02515
440,00;-0,02487
440,50;-0,02493
441,00;-0,02515
441,50;-0,02553
442,00;-0,02571
442,50;-0,02563
443,00;-0,02527
443,50;-0,02490
444,00;-0,02472
444,50;-0,02493
445,00;-0,02530
445,50;-0,02559
446,00;-0,02550
446,50;-0,02516
447,00;-0,02466
447,50;-0,02437
448,00;-0,02454
448,50;-0,02492
449,00;-0,02524
449,50;-0,02547
450,00;-0,02538
450,50;-0,02496
451,00;-0,02467
451,50;-0,02449
452,00;-0,02467
452,50;-0,02504
453,00;-0,02527
453,50;-0,02519
454,00;-0,02480
454,50;-0,02446
455,00;-0,02426
455,50;-0,02422
456,00;-0,02457
456,50;-0,02492
457,00;-0,02510
457,50;-0,02499
458,00;-0,02467
458,50;-0,02426
459,00;-0,02405
459,50;-0,02419
460,00;-0,02451
460,50;-0,02487
461,00;-0,02502
461,50;-0,02489
462,00;-0,02458
462,50;-0,02419
463,00;-0,02400
463,50;-0,02406
464,00;-0,02426
464,50;-0,02451
465,00;-0,02480
465,50;-0,02473
466,00;-0,02441
466,50;-0,02400
467,00;-0,02382
467,50;-0,02383
468,00;-0,02403
468,50;-0,02444
469,00;-0,02469
469,50;-0,02473
470,00;-0,02452
470,50;-0,02414
471,00;-0,02373
471,50;-0,02365
472,00;-0,02393
472,50;-0,02432
473,00;-0,02458
473,50;-0,02461
474,00;-0,02438
474,50;-0,02411
475,00;-0,02367
475,50;-0,02357
476,00;-0,02368
476,50;-0,02411
477,00;-0,02443
477,50;-0,02460
478,00;-0,02444
478,50;-0,02417
479,00;-0,02377
479,50;-0,02351
480,00;-0,02351
480,50;-0,02370
481,00;-0,02408
481,50;-0,02440
482,00;-0,02449
482,50;-0,02415
483,00;-0,02376
483,50;-0,02336
484,00;-0,02322
484,50;-0,02332
485,00;-0,02359
485,50;-0,02399
486,00;-0,02428
486,50;-0,02437
487,00;-0,02412
487,50;-0,02368
488,00;-0,02333
488,50;-0,02310
489,00;-0,02313
489,50;-0,02333
490,00;-0,02376
490,50;-0,02400
491,00;-0,02414
491,50;-0,02402
492,00;-0,02365
492,50;-0,02335
493,00;-0,02313
493,50;-0,02310
494,00;-0,02327
494,50;-0,02357
495,00;-0,02385
495,50;-0,02396
496,00;-0,02391
496,50;-0,02364
497,00;-0,02322
497,50;-0,02284
498,00;-0,02281
498,50;-0,02298
499,00;-0,02325
499,50;-0,02370
500,00;-0,02394
500,50;-0,02386
501,00;-0,02350
501,50;-0,02318
502,00;-0,02290
502,50;-0,02274
503,00;-0,02289
503,50;-0,02321
504,00;-0,02353
504,50;-0,02379
505,00;-0,02383
505,50;-0,02367
506,00;-0,02338
506,50;-0,02303
507,00;-0,02269
507,50;-0,02260
508,00;-0,02277
508,50;-0,02296
509,00;-0,02322
509,50;-0,02353
510,00;-0,02359
510,50;-0,02344
511,00;-0,02304
511,50;-0,02269
512,00;-0,02238
512,50;-0,02246
513,00;-0,02266
513,50;-0,02301
514,00;-0,02325
514,50;-0,02345
515,00;-0,02351
515,50;-0,02332
516,00;-0,02307
516,50;-0,02274
517,00;-0,02235
517,50;-0,02229
518,00;-0,02246
518,50;-0,02275
519,00;-0,02313
519,50;-0,02342
520,00;-0,02338
520,50;-0,02316
521,00;-0,02289
521,50;-0,02275
522,00;-0,02257
522,50;-0,02228
523,00;-0,02232
523,50;-0,02258
524,00;-0,02301
524,50;-0,02327
525,00;-0,02341
525,50;-0,02325
526,00;-0,02289
526,50;-0,02261
527,00;-0,02237
527,50;-0,02223
528,00;-0,02226
528,50;-0,02248
529,00;-0,02277
529,50;-0,02307
530,00;-0,02327
530,50;-0,02319
531,00;-0,02304
531,50;-0,02277
532,00;-0,02249
532,50;-0,02220
533,00;-0,02206
533,50;-0,02205
534,00;-0,02232
534,50;-0,02267
535,00;-0,02295
535,50;-0,02310
536,00;-0,02306
536,50;-0,02278
537,00;-0,02252
537,50;-0,02219
538,00;-0,02188
538,50;-0,02180
539,00;-0,02197
539,50;-0,02222
540,00;-0,02254
540,50;-0,02271
541,00;-0,02287
541,50;-0,02293
542,00;-0,02277
542,50;-0,02251
543,00;-0,02217
543,50;-0,02193
544,00;-0,02188
544,50;-0,02191
545,00;-0,02203
545,50;-0,02234
546,00;-0,02264
546,50;-0,02289
547,00;-0,02290
547,50;-0,02277
548,00;-0,02245
548,50;-0,02213
549,00;-0,02190
549,50;-0,02170
550,00;-0,02170
550,50;-0,02190
551,00;-0,02216
551,50;-0,02243
552,00;-0,02263
552,50;-0,02272
553,00;-0,02263
553,50;-0,02238
554,00;-0,02219
554,50;-0,02179
555,00;-0,02170
555,50;-0,02156
556,00;-0,02158
556,50;-0,02190
557,00;-0,02205
557,50;-0,02226
558,00;-0,02246
558,50;-0,02269
559,00;-0,02261
559,50;-0,02220
560,00;-0,02184
560,50;-0,02159
561,00;-0,02151
561,50;-0,02150
562,00;-0,02153
562,50;-0,02171
563,00;-0,02205
563,50;-0,02229
564,00;-0,02248
564,50;-0,02252
565,00;-0,02240
565,50;-0,02214
566,00;-0,02188
566,50;-0,02164
567,00;-0,02145
567,50;-0,02136
568,00;-0,02145
568,50;-0,02165
569,00;-0,02190
569,50;-0,02216
570,00;-0,02242
570,50;-0,02252
571,00;-0,02246
571,50;-0,02225
572,00;-0,02191
572,50;-0,02165
573,00;-0,02148
573,50;-0,02133
574,00;-0,02133
574,50;-0,02138
575,00;-0,02161
575,50;-0,02202
576,00;-0,02220
576,50;-0,02234
577,00;-0,02240
577,50;-0,02232
578,00;-0,02211
578,50;-0,02188
579,00;-0,02162
579,50;-0,02130
580,00;-0,02122
580,50;-0,02132
581,00;-0,02144
581,50;-0,02165
582,00;-0,02194
582,50;-0,02225
583,00;-0,02242
583,50;-0,02235
584,00;-0,02216
584,50;-0,02200
585,00;-0,02176
585,50;-0,02145
586,00;-0,02121
586,50;-0,02113
587,00;-0,02119
587,50;-0,02144
588,00;-0,02156
588,50;-0,02187
589,00;-0,02211
589,50;-0,02220
590,00;-0,02226
590,50;-0,02223
591,00;-0,02199
591,50;-0,02177
592,00;-0,02151
592,50;-0,02127
593,00;-0,02107
593,50;-0,02098
594,00;-0,02103
594,50;-0,02132
595,00;-0,02150
595,50;-0,02185
596,00;-0,02205
596,50;-0,02219
597,00;-0,02208
597,50;-0,02187
598,00;-0,02170
598,50;-0,02144
599,00;-0,02121
599,50;-0,02112
600,00;-0,02100
600,50;-0,02109
601,00;-0,02119
601,50;-0,02130
602,00;-0,02161
602,50;-0,02184
603,00;-0,02191
603,50;-0,02193
604,00;-0,02199
604,50;-0,02182
605,00;-0,02162
605,50;-0,02136
606,00;-0,02116
606,50;-0,02107
607,00;-0,02100
607,50;-0,02110
608,00;-0,02121
608,50;-0,02138
609,00;-0,02168
609,50;-0,02182
610,00;-0,02190
610,50;-0,02196
611,00;-0,02193
611,50;-0,02182
612,00;-0,02170
612,50;-0,02144
613,00;-0,02122
613,50;-0,02107
614,00;-0,02098
614,50;-0,02107
615,00;-0,02112
615,50;-0,02124
616,00;-0,02144
616,50;-0,02171
617,00;-0,02191
617,50;-0,02190
618,00;-0,02182
618,50;-0,02179
619,00;-0,02164
619,50;-0,02153
620,00;-0,02132
620,50;-0,02115
621,00;-0,02098
621,50;-0,02094
622,00;-0,02095
622,50;-0,02113
623,00;-0,02144
623,50;-0,02161
624,00;-0,02177
624,50;-0,02190
625,00;-0,02190
625,50;-0,02191
626,00;-0,02184
626,50;-0,02168
627,00;-0,02142
627,50;-0,02130
628,00;-0,02112
628,50;-0,02087
629,00;-0,02084
629,50;-0,02092
630,00;-0,02104
630,50;-0,02118
631,00;-0,02139
631,50;-0,02164
632,00;-0,02185
632,50;-0,02187
633,00;-0,02179
633,50;-0,02168
634,00;-0,02147
634,50;-0,02127
635,00;-0,02113
635,50;-0,02103
636,00;-0,02095
636,50;-0,02084
637,00;-0,02089
637,50;-0,02106
638,00;-0,02121
638,50;-0,02145
639,00;-0,02159
639,50;-0,02174
640,00;-0,02179
640,50;-0,02187
641,00;-0,02193
641,50;-0,02185
642,00;-0,02159
642,50;-0,02132
643,00;-0,02121
643,50;-0,02115
644,00;-0,02077
644,50;-0,02072
645,00;-0,02092
645,50;-0,02101
646,00;-0,02110
646,50;-0,02116
647,00;-0,02129
647,50;-0,02144
648,00;-0,02151
648,50;-0,02147
649,00;-0,02150
649,50;-0,02135
650,00;-0,02126
650,50;-0,02101
651,00;-0,02075
651,50;-0,02071
652,00;-0,02072
652,50;-0,02075
653,00;-0,02075
653,50;-0,02077
654,00;-0,02089
654,50;-0,02118
655,00;-0,02147
655,50;-0,02151
656,00;-0,02156
656,50;-0,02164
657,00;-0,02158
657,50;-0,02147
658,00;-0,02132
658,50;-0,02113
659,00;-0,02094
659,50;-0,02086
660,00;-0,02075
660,50;-0,02068
661,00;-0,02078
661,50;-0,02081
662,00;-0,02094
662,50;-0,02103
663,00;-0,02112
663,50;-0,02124
664,00;-0,02142
664,50;-0,02158
665,00;-0,02162
665,50;-0,02153
666,00;-0,02141
666,50;-0,02121
667,00;-0,02100
667,50;-0,02086
668,00;-0,02077
668,50;-0,02066
669,00;-0,02066
669,50;-0,02068
670,00;-0,02075
670,50;-0,02092
671,00;-0,02106
671,50;-0,02115
672,00;-0,02130
672,50;-0,02130
673,00;-0,02141
673,50;-0,02158
674,00;-0,02164
674,50;-0,02153
675,00;-0,02138
675,50;-0,02110
676,00;-0,02086
676,50;-0,02068
677,00;-0,02060
677,50;-0,02055
678,00;-0,02057
678,50;-0,02055
679,00;-0,02071
679,50;-0,02081
680,00;-0,02098
680,50;-0,02116
681,00;-0,02126
681,50;-0,02135
682,00;-0,02147
682,50;-0,02151
683,00;-0,02156
683,50;-0,02133
684,00;-0,02126
684,50;-0,02112
685,00;-0,02100
685,50;-0,02084
686,00;-0,02077
686,50;-0,02072
687,00;-0,02074
687,50;-0,02075
688,00;-0,02083
688,50;-0,02089
689,00;-0,02098
689,50;-0,02116
690,00;-0,02121
690,50;-0,02126
691,00;-0,02127
691,50;-0,02132
692,00;-0,02136
692,50;-0,02129
693,00;-0,02116
693,50;-0,02097
694,00;-0,02080
694,50;-0,02074
695,00;-0,02069
695,50;-0,02063
696,00;-0,02051
696,50;-0,02065
697,00;-0,02074
697,50;-0,02090
698,00;-0,02103
698,50;-0,02118
699,00;-0,02124
699,50;-0,02122
700,00;-0,02126
700,50;-0,02138
701,00;-0,02139
701,50;-0,02130
702,00;-0,02106
702,50;-0,02100
703,00;-0,02106
703,50;-0,02080
704,00;-0,02066
704,50;-0,02060
705,00;-0,02057
705,50;-0,02063
706,00;-0,02066
706,50;-0,02071
707,00;-0,02081
707,50;-0,02090
708,00;-0,02097
708,50;-0,02104
709,00;-0,02122
709,50;-0,02136
710,00;-0,02155
710,50;-0,02142
711,00;-0,02138
711,50;-0,02132
712,00;-0,02119
712,50;-0,02104
713,00;-0,02094
713,50;-0,02080
714,00;-0,02055
714,50;-0,02055
715,00;-0,02055
715,50;-0,02057
716,00;-0,02071
716,50;-0,02078
717,00;-0,02090
717,50;-0,02103
718,00;-0,02116
718,50;-0,02124
719,00;-0,02132
719,50;-0,02133
720,00;-0,02122
720,50;-0,02122
721,00;-0,02119
721,50;-0,02121
722,00;-0,02100
722,50;-0,02086
723,00;-0,02081
723,50;-0,02061
724,00;-0,02060
724,50;-0,02071
725,00;-0,02065
725,50;-0,02065
726,00;-0,02074
726,50;-0,02084
727,00;-0,02081
727,50;-0,02095
728,00;-0,02116
728,50;-0,02129
729,00;-0,02129
729,50;-0,02129
730,00;-0,02135
730,50;-0,02141
731,00;-0,02139
731,50;-0,02135
732,00;-0,02122
732,50;-0,02106
733,00;-0,02095
733,50;-0,02086
734,00;-0,02072
734,50;-0,02061
735,00;-0,02063
735,50;-0,02063
736,00;-0,02065
736,50;-0,02072
737,00;-0,02074
737,50;-0,02084
738,00;-0,02101
738,50;-0,02109
739,00;-0,02113
739,50;-0,02119
740,00;-0,02126
740,50;-0,02135
741,00;-0,02138
741,50;-0,02130
742,00;-0,02119
742,50;-0,02113
743,00;-0,02104
743,50;-0,02087
744,00;-0,02080
744,50;-0,02075
745,00;-0,02071
745,50;-0,02068
746,00;-0,02072
746,50;-0,02072
747,00;-0,02077
747,50;-0,02089
748,00;-0,02097
748,50;-0,02104
749,00;-0,02106
749,50;-0,02106
750,00;-0,02124
750,50;-0,02136
751,00;-0,02138
751,50;-0,02135
752,00;-0,02138
752,50;-0,02133
753,00;-0,02115
753,50;-0,02106
754,00;-0,02090
754,50;-0,02084
755,00;-0,02077
755,50;-0,02071
756,00;-0,02066
756,50;-0,02068
757,00;-0,02071
757,50;-0,02071
758,00;-0,02068
758,50;-0,02090
759,00;-0,02101
759,50;-0,02113
760,00;-0,02129
760,50;-0,02139
761,00;-0,02141
761,50;-0,02150
762,00;-0,02145
762,50;-0,02145
763,00;-0,02147
763,50;-0,02136
764,00;-0,02130
764,50;-0,02130
765,00;-0,02124
765,50;-0,02103
766,00;-0,02092
766,50;-0,02087
767,00;-0,02078
767,50;-0,02063
768,00;-0,02061
768,50;-0,02072
769,00;-0,02086
769,50;-0,02089
770,00;-0,02100
770,50;-0,02115
771,00;-0,02133
771,50;-0,02139
772,00;-0,02139
772,50;-0,02139
773,00;-0,02148
773,50;-0,02153
774,00;-0,02142
774,50;-0,02132
775,00;-0,02122
775,50;-0,02110
776,00;-0,02106
776,50;-0,02100
777,00;-0,02097
777,50;-0,02094
778,00;-0,02089
778,50;-0,02083
779,00;-0,02080
779,50;-0,02086
780,00;-0,02086
780,50;-0,02090
781,00;-0,02092
781,50;-0,02103
782,00;-0,02113
782,50;-0,02119
783,00;-0,02127
783,50;-0,02132
784,00;-0,02144
784,50;-0,02155
785,00;-0,02150
785,50;-0,02148
786,00;-0,02147
786,50;-0,02138
787,00;-0,02136
787,50;-0,02124
788,00;-0,02112
788,50;-0,02104
789,00;-0,02106
789,50;-0,02094
790,00;-0,02084
790,50;-0,02086
791,00;-0,02084
791,50;-0,02092
792,00;-0,02098
792,50;-0,02097
793,00;-0,02103
793,50;-0,02106
794,00;-0,02119
794,50;-0,02135
795,00;-0,02141
795,50;-0,02138
796,00;-0,02135
796,50;-0,02135
797,00;-0,02133
797,50;-0,02142
798,00;-0,02144
798,50;-0,02144
799,00;-0,02141
799,50;-0,02126
800,00;-0,02104
800,50;-0,02110
801,00;-0,02115
801,50;-0,02113
802,00;-0,02107
802,50;-0,02098
803,00;-0,02081
803,50;-0,02089
804,00;-0,02106
804,50;-0,02107
805,00;-0,02110
805,50;-0,02112
806,00;-0,02119
806,50;-0,02122
807,00;-0,02124
807,50;-0,02132
808,00;-0,02145
808,50;-0,02147
809,00;-0,02148
809,50;-0,02138
810,00;-0,02133
810,50;-0,02135
811,00;-0,02133
811,50;-0,02132
812,00;-0,02122
812,50;-0,02118
813,00;-0,02116
813,50;-0,02113
814,00;-0,02103
814,50;-0,02106
815,00;-0,02104
815,50;-0,02103
816,00;-0,02100
816,50;-0,02098
817,00;-0,02110
817,50;-0,02113
818,00;-0,02115
818,50;-0,02113
819,00;-0,02122
819,50;-0,02130
820,00;-0,02135
820,50;-0,02145
821,00;-0,02148
821,50;-0,02147
822,00;-0,02147
822,50;-0,02136
823,00;-0,02130
823,50;-0,02141
824,00;-0,02141
824,50;-0,02130
825,00;-0,02124
825,50;-0,02118
826,00;-0,02104
826,50;-0,02106
827,00;-0,02103
827,50;-0,02103
828,00;-0,02109
828,50;-0,02113
829,00;-0,02112
829,50;-0,02107
830,00;-0,02103
830,50;-0,02109
831,00;-0,02115
831,50;-0,02119
832,00;-0,02122
832,50;-0,02126
833,00;-0,02130
833,50;-0,02138
834,00;-0,02145
834,50;-0,02139
835,00;-0,02135
835,50;-0,02138
836,00;-0,02138
836,50;-0,02132
837,00;-0,02132
837,50;-0,02132
838,00;-0,02129
838,50;-0,02124
839,00;-0,02118
839,50;-0,02115
840,00;-0,02106
840,50;-0,02104
841,00;-0,02104
841,50;-0,02107
842,00;-0,02118
842,50;-0,02116
843,00;-0,02107
843,50;-0,02104
844,00;-0,02115
844,50;-0,02121
845,00;-0,02127
845,50;-0,02136
846,00;-0,02141
846,50;-0,02141
847,00;-0,02138
847,50;-0,02138
848,00;-0,02145
848,50;-0,02156
849,00;-0,02153
849,50;-0,02158
850,00;-0,02161
850,50;-0,02141
851,00;-0,02133
851,50;-0,02130
852,00;-0,02124
852,50;-0,02119
853,00;-0,02116
853,50;-0,02118
854,00;-0,02116
854,50;-0,02104
855,00;-0,02100
855,50;-0,02110
856,00;-0,02116
856,50;-0,02130
857,00;-0,02130
857,50;-0,02127
858,00;-0,02126
858,50;-0,02119
859,00;-0,02122
859,50;-0,02138
860,00;-0,02144
860,50;-0,02148
861,00;-0,02153
861,50;-0,02147
862,00;-0,02144
862,50;-0,02144
863,00;-0,02151
863,50;-0,02141
864,00;-0,02132
864,50;-0,02127
865,00;-0,02121
865,50;-0,02124
866,00;-0,02126
866,50;-0,02124
867,00;-0,02113
867,50;-0,02106
868,00;-0,02109
868,50;-0,02107
869,00;-0,02109
869,50;-0,02101
870,00;-0,02104
870,50;-0,02104
871,00;-0,02104
871,50;-0,02110
872,00;-0,02115
872,50;-0,02116
873,00;-0,02116
873,50;-0,02121
874,00;-0,02127
874,50;-0,02133
875,00;-0,02138
875,50;-0,02142
876,00;-0,02145
876,50;-0,02139
877,00;-0,02142
877,50;-0,02138
878,00;-0,02144
878,50;-0,02139
879,00;-0,02141
879,50;-0,02138
880,00;-0,02135
880,50;-0,02126
881,00;-0,02112
881,50;-0,02106
882,00;-0,02109
882,50;-0,02110
883,00;-0,02110
883,50;-0,02103
884,00;-0,02106
884,50;-0,02109
885,00;-0,02110
885,50;-0,02097
886,00;-0,02092
886,50;-0,02100
887,00;-0,02109
887,50;-0,02113
888,00;-0,02119
888,50;-0,02132
889,00;-0,02141
889,50;-0,02153
890,00;-0,02159
890,50;-0,02158
891,00;-0,02144
891,50;-0,02136
892,00;-0,02135
892,50;-0,02135
893,00;-0,02139
893,50;-0,02141
894,00;-0,02141
894,50;-0,02141
895,00;-0,02142
895,50;-0,02135
896,00;-0,02127
896,50;-0,02116
897,00;-0,02106
897,50;-0,02095
898,00;-0,02089
898,50;-0,02106
899,00;-0,02115
899,50;-0,02112
900,00;-0,02107
900,50;-0,02094
901,00;-0,02087
901,50;-0,02097
902,00;-0,02110
902,50;-0,02132
903,00;-0,02138
903,50;-0,02126
904,00;-0,02115
904,50;-0,02127
905,00;-0,02130
905,50;-0,02127
906,00;-0,02135
906,50;-0,02124
907,00;-0,02112
907,50;-0,02126
908,00;-0,02136
908,50;-0,02118
909,00;-0,02104
909,50;-0,02119
910,00;-0,02136
910,50;-0,02130
911,00;-0,02107
911,50;-0,02107
912,00;-0,02122
912,50;-0,02115
913,00;-0,02103
913,50;-0,02089
914,00;-0,02089
914,50;-0,02104
915,00;-0,02118
915,50;-0,02103
916,00;-0,02086
916,50;-0,02098
917,00;-0,02104
917,50;-0,02112
918,00;-0,02129
918,50;-0,02121
919,00;-0,02098
919,50;-0,02119
920,00;-0,02126
920,50;-0,02133
921,00;-0,02142
921,50;-0,02153
922,00;-0,02161
922,50;-0,02151
923,00;-0,02136
923,50;-0,02139
924,00;-0,02150
924,50;-0,02138
925,00;-0,02133
925,50;-0,02138
926,00;-0,02139
926,50;-0,02122
927,00;-0,02104
927,50;-0,02110
928,00;-0,02126
928,50;-0,02109
929,00;-0,02095
929,50;-0,02110
930,00;-0,02116
930,50;-0,02104
931,00;-0,02092
931,50;-0,02104
932,00;-0,02116
932,50;-0,02101
933,00;-0,02092
933,50;-0,02086
934,00;-0,02089
934,50;-0,02103
935,00;-0,02116
935,50;-0,02115
936,00;-0,02110
936,50;-0,02122
937,00;-0,02136
937,50;-0,02136
938,00;-0,02129
938,50;-0,02133
939,00;-0,02139
939,50;-0,02127
940,00;-0,02116
940,50;-0,02124
941,00;-0,02145
941,50;-0,02142
942,00;-0,02126
942,50;-0,02115
943,00;-0,02106
943,50;-0,02113
944,00;-0,02127
944,50;-0,02119
945,00;-0,02113
945,50;-0,02109
946,00;-0,02095
946,50;-0,02098
947,00;-0,02098
947,50;-0,02083
948,00;-0,02083
948,50;-0,02098
949,00;-0,02100
949,50;-0,02100
950,00;-0,02101
950,50;-0,02104
951,00;-0,02109
951,50;-0,02107
952,00;-0,02106
952,50;-0,02101
953,00;-0,02106
953,50;-0,02118
954,00;-0,02121
954,50;-0,02132
955,00;-0,02136
955,50;-0,02144
956,00;-0,02138
956,50;-0,02133
957,00;-0,02129
957,50;-0,02126
958,00;-0,02119
958,50;-0,02126
959,00;-0,02124
959,50;-0,02116
960,00;-0,02104
960,50;-0,02104
961,00;-0,02109
961,50;-0,02097
962,00;-0,02094
962,50;-0,02097
963,00;-0,02094
963,50;-0,02092
964,00;-0,02092
964,50;-0,02089
965,00;-0,02087
965,50;-0,02089
966,00;-0,02097
966,50;-0,02087
967,00;-0,02084
967,50;-0,02087
968,00;-0,02100
968,50;-0,02106
969,00;-0,02103
969,50;-0,02103
970,00;-0,02103
970,50;-0,02103
971,00;-0,02103
971,50;-0,02107
972,00;-0,02113
972,50;-0,02118
973,00;-0,02132
973,50;-0,02129
974,00;-0,02133
974,50;-0,02129
975,00;-0,02126
975,50;-0,02124
976,00;-0,02121
976,50;-0,02104
977,00;-0,02098
977,50;-0,02094
978,00;-0,02089
978,50;-0,02095
979,00;-0,02095
979,50;-0,02103
980,00;-0,02104
980,50;-0,02092
981,00;-0,02083
981,50;-0,02072
982,00;-0,02063
982,50;-0,02058
983,00;-0,02060
983,50;-0,02055
984,00;-0,02049
984,50;-0,02046
985,00;-0,02052
985,50;-0,02060
986,00;-0,02065
986,50;-0,02072
987,00;-0,02075
987,50;-0,02081
988,00;-0,02092
988,50;-0,02112
989,00;-0,02112
989,50;-0,02107
990,00;-0,02104
990,50;-0,02119
991,00;-0,02118
991,50;-0,02112
992,00;-0,02112
992,50;-0,02113
993,00;-0,02118
993,50;-0,02112
994,00;-0,02109
994,50;-0,02113
995,00;-0,02110
995,50;-0,02110
996,00;-0,02103
996,50;-0,02098
997,00;-0,02094
997,50;-0,02094
998,00;-0,02092
998,50;-0,02086
999,00;-0,02084
999,50;-0,02078
1000,00;-0,02068
1000,50;-0,02068
1001,00;-0,02066
1001,50;-0,02060
1002,00;-0,02060
1002,50;-0,02057
1003,00;-0,02057
1003,50;-0,02061
1004,00;-0,02057
1004,50;-0,02051
1005,00;-0,02060
1005,50;-0,02068
1006,00;-0,02068
1006,50;-0,02077
1007,00;-0,02078
1007,50;-0,02083
1008,00;-0,02086
1008,50;-0,02089
1009,00;-0,02094
1009,50;-0,02095
1010,00;-0,02097
1010,50;-0,02106
1011,00;-0,02107
1011,50;-0,02104
1012,00;-0,02106
1012,50;-0,02094
1013,00;-0,02090
1013,50;-0,02081
1014,00;-0,02084
1014,50;-0,02089
1015,00;-0,02086
1015,50;-0,02080
1016,00;-0,02074
1016,50;-0,02063
1017,00;-0,02060
1017,50;-0,02054
1018,00;-0,02052
1018,50;-0,02043
1019,00;-0,02034
1019,50;-0,02034
1020,00;-0,02037
1020,50;-0,02031
1021,00;-0,02028
1021,50;-0,02026
1022,00;-0,02025
1022,50;-0,02029
1023,00;-0,02026
1023,50;-0,02031
1024,00;-0,02026
1024,50;-0,02032
1025,00;-0,02037
1025,50;-0,02034
1026,00;-0,02034
1026,50;-0,02046
1027,00;-0,02055
1027,50;-0,02057
1028,00;-0,02066
1028,50;-0,02077
1029,00;-0,02078
1029,50;-0,02080
1030,00;-0,02087
1030,50;-0,02086
1031,00;-0,02080
1031,50;-0,02080
1032,00;-0,02081
1032,50;-0,02084
1033,00;-0,02086
1033,50;-0,02086
1034,00;-0,02080
1034,50;-0,02074
1035,00;-0,02068
1035,50;-0,02065
1036,00;-0,02058
1036,50;-0,02052
1037,00;-0,02058
1037,50;-0,02051
1038,00;-0,02046
1038,50;-0,02032
1039,00;-0,02026
1039,50;-0,02017
1040,00;-0,02003
1040,50;-0,02003
1041,00;-0,01996
1041,50;-0,02002
1042,00;-0,02008
1042,50;-0,02011
1043,00;-0,02003
1043,50;-0,01999
1044,00;-0,01997
1044,50;-0,02005
1045,00;-0,02014
1045,50;-0,02013
1046,00;-0,02014
1046,50;-0,02026
1047,00;-0,02037
1047,50;-0,02032
1048,00;-0,02034
1048,50;-0,02036
1049,00;-0,02042
1049,50;-0,02055
1050,00;-0,02072
1050,50;-0,02080
1051,00;-0,02081
1051,50;-0,02066
1052,00;-0,02049
1052,50;-0,02058
1053,00;-0,02075
1053,50;-0,02083
1054,00;-0,02087
1054,50;-0,02060
1055,00;-0,02032
1055,50;-0,02040
1056,00;-0,02051
1056,50;-0,02051
1057,00;-0,02051
1057,50;-0,02028
1058,00;-0,02014
1058,50;-0,02000
1059,00;-0,01997
1059,50;-0,02000
1060,00;-0,02007
1060,50;-0,01997
1061,00;-0,01988
1061,50;-0,01974
1062,00;-0,01961
1062,50;-0,01965
1063,00;-0,01976
1063,50;-0,01987
1064,00;-0,01976
1064,50;-0,01970
1065,00;-0,01967
1065,50;-0,01970
1066,00;-0,01979
1066,50;-0,01985
1067,00;-0,01988
1067,50;-0,01993
1068,00;-0,01991
1068,50;-0,02002
1069,00;-0,02014
1069,50;-0,02010
1070,00;-0,01999
1070,50;-0,02007
1071,00;-0,02026
1071,50;-0,02042
1072,00;-0,02043
1072,50;-0,02036
1073,00;-0,02042
1073,50;-0,02048
1074,00;-0,02046
1074,50;-0,02037
1075,00;-0,02025
1075,50;-0,02029
1076,00;-0,02048
1076,50;-0,02032
1077,00;-0,02008
1077,50;-0,02011
1078,00;-0,02023
1078,50;-0,02029
1079,00;-0,02017
1079,50;-0,02008
1080,00;-0,01999
1080,50;-0,02007
1081,00;-0,02010
1081,50;-0,01984
1082,00;-0,01953
1082,50;-0,01945
1083,00;-0,01953
1083,50;-0,01961
1084,00;-0,01947
1084,50;-0,01935
1085,00;-0,01933
1085,50;-0,01947
1086,00;-0,01959
1086,50;-0,01949
1087,00;-0,01935
1087,50;-0,01942
1088,00;-0,01941
1088,50;-0,01947
1089,00;-0,01956
1089,50;-0,01959
1090,00;-0,01961
1090,50;-0,01959
1091,00;-0,01959
1091,50;-0,01970
1092,00;-0,01982
1092,50;-0,01987
1093,00;-0,01993
1093,50;-0,02008
1094,00;-0,02020
1094,50;-0,02014
1095,00;-0,02010
1095,50;-0,02005
1096,00;-0,02007
1096,50;-0,02019
1097,00;-0,02037
1097,50;-0,02029
1098,00;-0,02016
1098,50;-0,02029
1099,00;-0,02028
1099,50;-0,02032
1100,00;-0,02028
