"File_221110_221150 - RawData"
"Wavelength nm.","Abs."
300.00,0.01785
300.50,0.06075
301.00,0.07271
301.50,0.04675
302.00,0.06302
302.50,0.06049
303.00,0.05756
303.50,0.05048
304.00,0.04381
304.50,0.04338
305.00,0.03818
305.50,0.04091
306.00,0.03670
306.50,0.03835
307.00,0.03123
307.50,0.03146
308.00,0.03236
308.50,0.02753
309.00,0.02061
309.50,0.02245
310.00,0.02072
310.50,0.01927
311.00,0.01721
311.50,0.01477
312.00,0.01260
312.50,0.01178
313.00,0.00900
313.50,0.00906
314.00,0.00639
314.50,0.00438
315.00,0.00339
315.50,0.00214
316.00,0.00153
316.50,0.00133
317.00,0.00006
317.50,-0.00105
318.00,-0.00233
318.50,-0.00250
319.00,-0.00359
319.50,-0.00349
320.00,-0.00424
320.50,-0.00603
321.00,-0.00650
321.50,-0.00766
322.00,-0.00954
322.50,-0.01070
323.00,-0.01175
323.50,-0.01167
324.00,-0.01216
324.50,-0.01257
325.00,-0.01262
325.50,-0.01260
326.00,-0.01334
326.50,-0.01378
327.00,-0.01443
327.50,-0.01468
328.00,-0.01505
328.50,-0.01555
329.00,-0.01656
329.50,-0.01706
330.00,-0.01749
330.50,-0.01813
331.00,-0.01846
331.50,-0.01863
332.00,-0.01868
332.50,-0.01903
333.00,-0.01909
333.50,-0.01942
334.00,-0.01965
334.50,-0.02007
335.00,-0.02036
335.50,-0.02007
336.00,-0.02023
336.50,-0.02042
337.00,-0.02014
337.50,-0.02069
338.00,-0.02075
338.50,-0.02141
339.00,-0.02187
339.50,-0.02203
340.00,-0.02335
340.50,-0.02477
341.00,-0.02271
341.50,-0.02258
342.00,-0.02251
342.50,-0.02238
343.00,-0.02251
343.50,-0.02234
344.00,-0.02277
344.50,-0.02267
345.00,-0.02287
345.50,-0.02299
346.00,-0.02333
346.50,-0.02307
347.00,-0.02303
347.50,-0.02309
348.00,-0.02341
348.50,-0.02359
349.00,-0.02350
349.50,-0.02362
350.00,-0.02354
350.50,-0.02386
351.00,-0.02391
351.50,-0.02393
352.00,-0.02411
352.50,-0.02403
353.00,-0.02385
353.50,-0.02394
354.00,-0.02396
354.50,-0.02420
355.00,-0.02417
355.50,-0.02415
356.00,-0.02414
356.50,-0.02409
357.00,-0.02399
357.50,-0.02405
358.00,-0.02405
358.50,-0.02400
359.00,-0.02414
359.50,-0.02388
360.00,-0.02385
360.50,-0.02406
361.00,-0.02403
361.50,-0.02400
362.00,-0.02403
362.50,-0.02399
363.00,-0.02383
363.50,-0.02423
364.00,-0.02434
364.50,-0.02463
365.00,-0.02435
365.50,-0.02414
366.00,-0.02406
366.50,-0.02411
367.00,-0.02420
367.50,-0.02408
368.00,-0.02393
368.50,-0.02382
369.00,-0.02396
369.50,-0.02370
370.00,-0.02365
370.50,-0.02377
371.00,-0.02380
371.50,-0.02357
372.00,-0.02345
372.50,-0.02344
373.00,-0.02341
373.50,-0.02359
374.00,-0.02365
374.50,-0.02371
375.00,-0.02353
375.50,-0.02351
376.00,-0.02350
376.50,-0.02344
377.00,-0.02344
377.50,-0.02328
378.00,-0.02309
378.50,-0.02304
379.00,-0.02312
379.50,-0.02324
380.00,-0.02342
380.50,-0.02345
381.00,-0.02336
381.50,-0.02324
382.00,-0.02328
382.50,-0.02330
383.00,-0.02312
383.50,-0.02332
384.00,-0.02341
384.50,-0.02319
385.00,-0.02327
385.50,-0.02332
386.00,-0.02347
386.50,-0.02350
387.00,-0.02341
387.50,-0.02336
388.00,-0.02344
388.50,-0.02339
389.00,-0.02342
389.50,-0.02338
390.00,-0.02338
390.50,-0.02336
391.00,-0.02335
391.50,-0.02345
392.00,-0.02347
392.50,-0.02324
393.00,-0.02312
393.50,-0.02307
394.00,-0.02303
394.50,-0.02318
395.00,-0.02321
395.50,-0.02313
396.00,-0.02330
396.50,-0.02325
397.00,-0.02332
397.50,-0.02324
398.00,-0.02327
398.50,-0.02319
399.00,-0.02328
399.50,-0.02321
400.00,-0.02309
400.50,-0.02306
401.00,-0.02304
401.50,-0.02309
402.00,-0.02309
402.50,-0.02309
403.00,-0.02303
403.50,-0.02301
404.00,-0.02289
404.50,-0.02296
405.00,-0.02296
405.50,-0.02293
406.00,-0.02290
406.50,-0.02283
407.00,-0.02289
407.50,-0.02275
408.00,-0.02280
408.50,-0.02289
409.00,-0.02277
409.50,-0.02275
410.00,-0.02272
410.50,-0.02269
411.00,-0.02275
411.50,-0.02267
412.00,-0.02272
412.50,-0.02271
413.00,-0.02260
413.50,-0.02252
414.00,-0.02257
414.50,-0.02258
415.00,-0.02252
415.50,-0.02252
416.00,-0.02257
416.50,-0.02255
417.00,-0.02257
417.50,-0.02251
418.00,-0.02243
418.50,-0.02238
419.00,-0.02242
419.50,-0.02240
420.00,-0.02245
420.50,-0.02237
421.00,-0.02243
421.50,-0.02243
422.00,-0.02243
422.50,-0.02235
423.00,-0.02231
423.50,-0.02226
424.00,-0.02223
424.50,-0.02226
425.00,-0.02225
425.50,-0.02222
426.00,-0.02226
426.50,-0.02222
427.00,-0.02222
427.50,-0.02229
428.00,-0.02232
428.50,-0.02235
429.00,-0.02223
429.50,-0.02228
430.00,-0.02225
430.50,-0.02208
431.00,-0.02196
431.50,-0.02188
432.00,-0.02173
432.50,-0.02177
433.00,-0.02193
433.50,-0.02197
434.00,-0.02193
434.50,-0.02191
435.00,-0.02191
435.50,-0.02196
436.00,-0.02197
436.50,-0.02193
437.00,-0.02180
437.50,-0.02187
438.00,-0.02182
438.50,-0.02176
439.00,-0.02165
439.50,-0.02173
440.00,-0.02173
440.50,-0.02173
441.00,-0.02168
441.50,-0.02171
442.00,-0.02159
442.50,-0.02161
443.00,-0.02159
443.50,-0.02165
444.00,-0.02158
444.50,-0.02167
445.00,-0.02170
445.50,-0.02170
446.00,-0.02161
446.50,-0.02145
447.00,-0.02141
447.50,-0.02148
448.00,-0.02155
448.50,-0.02150
449.00,-0.02155
449.50,-0.02168
450.00,-0.02173
450.50,-0.02171
451.00,-0.02168
451.50,-0.02168
452.00,-0.02153
452.50,-0.02147
453.00,-0.02142
453.50,-0.02130
454.00,-0.02121
454.50,-0.02126
455.00,-0.02132
455.50,-0.02124
456.00,-0.02119
456.50,-0.02119
457.00,-0.02122
457.50,-0.02121
458.00,-0.02127
458.50,-0.02133
459.00,-0.02130
459.50,-0.02138
460.00,-0.02136
460.50,-0.02133
461.00,-0.02127
461.50,-0.02133
462.00,-0.02129
462.50,-0.02124
463.00,-0.02113
463.50,-0.02109
464.00,-0.02101
464.50,-0.02098
465.00,-0.02097
465.50,-0.02092
466.00,-0.02092
466.50,-0.02097
467.00,-0.02101
467.50,-0.02104
468.00,-0.02101
468.50,-0.02104
469.00,-0.02106
469.50,-0.02109
470.00,-0.02098
470.50,-0.02101
471.00,-0.02097
471.50,-0.02100
472.00,-0.02104
472.50,-0.02103
473.00,-0.02097
473.50,-0.02089
474.00,-0.02086
474.50,-0.02084
475.00,-0.02084
475.50,-0.02077
476.00,-0.02072
476.50,-0.02077
477.00,-0.02075
477.50,-0.02071
478.00,-0.02069
478.50,-0.02072
479.00,-0.02065
479.50,-0.02069
480.00,-0.02069
480.50,-0.02074
481.00,-0.02069
481.50,-0.02068
482.00,-0.02068
482.50,-0.02075
483.00,-0.02072
483.50,-0.02075
484.00,-0.02077
484.50,-0.02069
485.00,-0.02068
485.50,-0.02068
486.00,-0.02065
486.50,-0.02068
487.00,-0.02066
487.50,-0.02051
488.00,-0.02039
488.50,-0.02029
489.00,-0.02028
489.50,-0.02028
490.00,-0.02029
490.50,-0.02029
491.00,-0.02029
491.50,-0.02020
492.00,-0.02022
492.50,-0.02034
493.00,-0.02042
493.50,-0.02048
494.00,-0.02051
494.50,-0.02045
495.00,-0.02040
495.50,-0.02045
496.00,-0.02046
496.50,-0.02046
497.00,-0.02043
497.50,-0.02039
498.00,-0.02031
498.50,-0.02014
499.00,-0.02023
499.50,-0.02019
500.00,-0.02028
500.50,-0.02017
501.00,-0.02008
501.50,-0.02003
502.00,-0.02000
502.50,-0.01999
503.00,-0.02000
503.50,-0.02002
504.00,-0.02008
504.50,-0.02014
505.00,-0.02017
505.50,-0.02007
506.00,-0.02011
506.50,-0.02016
507.00,-0.02013
507.50,-0.02007
508.00,-0.02013
508.50,-0.02007
509.00,-0.02000
509.50,-0.02000
510.00,-0.02000
510.50,-0.02003
511.00,-0.02008
511.50,-0.02010
512.00,-0.02008
512.50,-0.02005
513.00,-0.01999
513.50,-0.01996
514.00,-0.01987
514.50,-0.01985
515.00,-0.01976
515.50,-0.01965
516.00,-0.01971
516.50,-0.01967
517.00,-0.01962
517.50,-0.01956
518.00,-0.01952
518.50,-0.01947
519.00,-0.01955
519.50,-0.01952
520.00,-0.01952
520.50,-0.01949
521.00,-0.01950
521.50,-0.01967
522.00,-0.01978
522.50,-0.01973
523.00,-0.01962
523.50,-0.01979
524.00,-0.01991
524.50,-0.01993
525.00,-0.01991
525.50,-0.01985
526.00,-0.01971
526.50,-0.01964
527.00,-0.01962
527.50,-0.01958
528.00,-0.01955
528.50,-0.01953
529.00,-0.01953
529.50,-0.01944
530.00,-0.01939
530.50,-0.01935
531.00,-0.01936
531.50,-0.01933
532.00,-0.01933
532.50,-0.01929
533.00,-0.01933
533.50,-0.01926
534.00,-0.01926
534.50,-0.01933
535.00,-0.01929
535.50,-0.01930
536.00,-0.01942
536.50,-0.01945
537.00,-0.01950
537.50,-0.01941
538.00,-0.01936
538.50,-0.01945
539.00,-0.01945
539.50,-0.01944
540.00,-0.01939
540.50,-0.01932
541.00,-0.01933
541.50,-0.01942
542.00,-0.01944
542.50,-0.01942
543.00,-0.01945
543.50,-0.01942
544.00,-0.01947
544.50,-0.01936
545.00,-0.01924
545.50,-0.01910
546.00,-0.01894
546.50,-0.01886
547.00,-0.01881
547.50,-0.01877
548.00,-0.01880
548.50,-0.01875
549.00,-0.01875
549.50,-0.01877
550.00,-0.01881
550.50,-0.01883
551.00,-0.01877
551.50,-0.01880
552.00,-0.01888
552.50,-0.01886
553.00,-0.01886
553.50,-0.01884
554.00,-0.01897
554.50,-0.01901
555.00,-0.01910
555.50,-0.01910
556.00,-0.01913
556.50,-0.01913
557.00,-0.01907
557.50,-0.01900
558.00,-0.01901
558.50,-0.01904
559.00,-0.01895
559.50,-0.01883
560.00,-0.01875
560.50,-0.01875
561.00,-0.01881
561.50,-0.01881
562.00,-0.01878
562.50,-0.01871
563.00,-0.01855
563.50,-0.01845
564.00,-0.01849
564.50,-0.01839
565.00,-0.01845
565.50,-0.01846
566.00,-0.01834
566.50,-0.01830
567.00,-0.01837
567.50,-0.01836
568.00,-0.01846
568.50,-0.01848
569.00,-0.01846
569.50,-0.01851
570.00,-0.01859
570.50,-0.01872
571.00,-0.01875
571.50,-0.01874
572.00,-0.01860
572.50,-0.01868
573.00,-0.01875
573.50,-0.01884
574.00,-0.01880
574.50,-0.01878
575.00,-0.01875
575.50,-0.01868
576.00,-0.01860
576.50,-0.01860
577.00,-0.01849
577.50,-0.01846
578.00,-0.01846
578.50,-0.01842
579.00,-0.01834
579.50,-0.01825
580.00,-0.01817
580.50,-0.01808
581.00,-0.01813
581.50,-0.01801
582.00,-0.01802
582.50,-0.01807
583.00,-0.01801
583.50,-0.01801
584.00,-0.01805
584.50,-0.01802
585.00,-0.01801
585.50,-0.01799
586.00,-0.01788
586.50,-0.01797
587.00,-0.01811
587.50,-0.01808
588.00,-0.01802
588.50,-0.01819
589.00,-0.01830
589.50,-0.01831
590.00,-0.01830
590.50,-0.01833
591.00,-0.01840
591.50,-0.01834
592.00,-0.01839
592.50,-0.01830
593.00,-0.01820
593.50,-0.01816
594.00,-0.01807
594.50,-0.01801
595.00,-0.01810
595.50,-0.01819
596.00,-0.01817
596.50,-0.01810
597.00,-0.01797
597.50,-0.01804
598.00,-0.01799
598.50,-0.01785
599.00,-0.01779
599.50,-0.01772
600.00,-0.01764
600.50,-0.01756
601.00,-0.01758
601.50,-0.01759
602.00,-0.01758
602.50,-0.01759
603.00,-0.01753
603.50,-0.01750
604.00,-0.01750
604.50,-0.01755
605.00,-0.01767
605.50,-0.01772
606.00,-0.01765
606.50,-0.01770
607.00,-0.01775
607.50,-0.01779
608.00,-0.01781
608.50,-0.01778
609.00,-0.01788
609.50,-0.01782
610.00,-0.01788
610.50,-0.01790
611.00,-0.01790
611.50,-0.01791
612.00,-0.01797
612.50,-0.01796
613.00,-0.01801
613.50,-0.01807
614.00,-0.01805
614.50,-0.01797
615.00,-0.01785
615.50,-0.01778
616.00,-0.01770
616.50,-0.01759
617.00,-0.01756
617.50,-0.01752
618.00,-0.01747
618.50,-0.01741
619.00,-0.01733
619.50,-0.01740
620.00,-0.01723
620.50,-0.01724
621.00,-0.01729
621.50,-0.01712
622.00,-0.01697
622.50,-0.01698
623.00,-0.01691
623.50,-0.01695
624.00,-0.01703
624.50,-0.01707
625.00,-0.01709
625.50,-0.01717
626.00,-0.01715
626.50,-0.01715
627.00,-0.01727
627.50,-0.01726
628.00,-0.01732
628.50,-0.01736
629.00,-0.01743
629.50,-0.01741
630.00,-0.01743
630.50,-0.01746
631.00,-0.01758
631.50,-0.01761
632.00,-0.01765
632.50,-0.01764
633.00,-0.01767
633.50,-0.01765
634.00,-0.01755
634.50,-0.01753
635.00,-0.01746
635.50,-0.01736
636.00,-0.01738
636.50,-0.01743
637.00,-0.01729
637.50,-0.01723
638.00,-0.01717
638.50,-0.01721
639.00,-0.01720
639.50,-0.01712
640.00,-0.01700
640.50,-0.01695
641.00,-0.01700
641.50,-0.01695
642.00,-0.01685
642.50,-0.01688
643.00,-0.01689
643.50,-0.01672
644.00,-0.01669
644.50,-0.01672
645.00,-0.01653
645.50,-0.01654
646.00,-0.01646
646.50,-0.01643
647.00,-0.01649
647.50,-0.01649
648.00,-0.01653
648.50,-0.01656
649.00,-0.01663
649.50,-0.01669
650.00,-0.01671
650.50,-0.01668
651.00,-0.01668
651.50,-0.01686
652.00,-0.01701
652.50,-0.01706
653.00,-0.01700
653.50,-0.01695
654.00,-0.01698
654.50,-0.01707
655.00,-0.01711
655.50,-0.01704
656.00,-0.01706
656.50,-0.01707
657.00,-0.01701
657.50,-0.01704
658.00,-0.01701
658.50,-0.01701
659.00,-0.01698
659.50,-0.01692
660.00,-0.01688
660.50,-0.01688
661.00,-0.01686
661.50,-0.01683
662.00,-0.01671
662.50,-0.01656
663.00,-0.01648
663.50,-0.01639
664.00,-0.01639
664.50,-0.01637
665.00,-0.01630
665.50,-0.01622
666.00,-0.01619
666.50,-0.01610
667.00,-0.01602
667.50,-0.01608
668.00,-0.01608
668.50,-0.01605
669.00,-0.01601
669.50,-0.01602
670.00,-0.01601
670.50,-0.01608
671.00,-0.01613
671.50,-0.01610
672.00,-0.01604
672.50,-0.01611
673.00,-0.01624
673.50,-0.01633
674.00,-0.01640
674.50,-0.01640
675.00,-0.01648
675.50,-0.01653
676.00,-0.01645
676.50,-0.01648
677.00,-0.01659
677.50,-0.01666
678.00,-0.01668
678.50,-0.01665
679.00,-0.01663
679.50,-0.01656
680.00,-0.01668
680.50,-0.01682
681.00,-0.01678
681.50,-0.01680
682.00,-0.01694
682.50,-0.01674
683.00,-0.01643
683.50,-0.01642
684.00,-0.01651
684.50,-0.01656
685.00,-0.01651
685.50,-0.01645
686.00,-0.01639
686.50,-0.01628
687.00,-0.01610
687.50,-0.01604
688.00,-0.01602
688.50,-0.01607
689.00,-0.01601
689.50,-0.01590
690.00,-0.01575
690.50,-0.01558
691.00,-0.01556
691.50,-0.01556
692.00,-0.01556
692.50,-0.01550
693.00,-0.01552
693.50,-0.01543
694.00,-0.01550
694.50,-0.01553
695.00,-0.01556
695.50,-0.01563
696.00,-0.01559
696.50,-0.01567
697.00,-0.01569
697.50,-0.01569
698.00,-0.01570
698.50,-0.01575
699.00,-0.01579
699.50,-0.01576
700.00,-0.01573
700.50,-0.01588
701.00,-0.01591
701.50,-0.01593
702.00,-0.01593
702.50,-0.01608
703.00,-0.01625
703.50,-0.01630
704.00,-0.01625
704.50,-0.01628
705.00,-0.01630
705.50,-0.01631
706.00,-0.01631
706.50,-0.01634
707.00,-0.01636
707.50,-0.01625
708.00,-0.01613
708.50,-0.01602
709.00,-0.01601
709.50,-0.01610
710.00,-0.01627
710.50,-0.01613
711.00,-0.01602
711.50,-0.01599
712.00,-0.01599
712.50,-0.01595
713.00,-0.01581
713.50,-0.01556
714.00,-0.01549
714.50,-0.01553
715.00,-0.01547
715.50,-0.01535
716.00,-0.01532
716.50,-0.01524
717.00,-0.01526
717.50,-0.01520
718.00,-0.01517
718.50,-0.01505
719.00,-0.01503
719.50,-0.01505
720.00,-0.01498
720.50,-0.01494
721.00,-0.01486
721.50,-0.01491
722.00,-0.01488
722.50,-0.01492
723.00,-0.01500
723.50,-0.01503
724.00,-0.01491
724.50,-0.01498
725.00,-0.01511
725.50,-0.01512
726.00,-0.01520
726.50,-0.01523
727.00,-0.01523
727.50,-0.01530
728.00,-0.01535
728.50,-0.01547
729.00,-0.01547
729.50,-0.01541
730.00,-0.01549
730.50,-0.01573
731.00,-0.01575
731.50,-0.01570
732.00,-0.01570
732.50,-0.01576
733.00,-0.01579
733.50,-0.01578
734.00,-0.01575
734.50,-0.01581
735.00,-0.01582
735.50,-0.01582
736.00,-0.01579
736.50,-0.01578
737.00,-0.01573
737.50,-0.01570
738.00,-0.01573
738.50,-0.01567
739.00,-0.01570
739.50,-0.01553
740.00,-0.01544
740.50,-0.01544
741.00,-0.01547
741.50,-0.01538
742.00,-0.01524
742.50,-0.01521
743.00,-0.01509
743.50,-0.01492
744.00,-0.01485
744.50,-0.01486
745.00,-0.01482
745.50,-0.01479
746.00,-0.01472
746.50,-0.01463
747.00,-0.01454
747.50,-0.01451
748.00,-0.01443
748.50,-0.01450
749.00,-0.01442
749.50,-0.01431
750.00,-0.01430
750.50,-0.01430
751.00,-0.01431
751.50,-0.01430
752.00,-0.01439
752.50,-0.01445
753.00,-0.01445
753.50,-0.01447
754.00,-0.01451
754.50,-0.01453
755.00,-0.01445
755.50,-0.01442
756.00,-0.01450
756.50,-0.01459
757.00,-0.01469
757.50,-0.01482
758.00,-0.01488
758.50,-0.01495
759.00,-0.01498
759.50,-0.01508
760.00,-0.01508
760.50,-0.01509
761.00,-0.01517
761.50,-0.01526
762.00,-0.01526
762.50,-0.01527
763.00,-0.01538
763.50,-0.01538
764.00,-0.01535
764.50,-0.01544
765.00,-0.01552
765.50,-0.01544
766.00,-0.01540
766.50,-0.01538
767.00,-0.01534
767.50,-0.01518
768.00,-0.01506
768.50,-0.01515
769.00,-0.01526
769.50,-0.01524
770.00,-0.01512
770.50,-0.01506
771.00,-0.01508
771.50,-0.01500
772.00,-0.01492
772.50,-0.01482
773.00,-0.01466
773.50,-0.01459
774.00,-0.01451
774.50,-0.01447
775.00,-0.01439
775.50,-0.01430
776.00,-0.01418
776.50,-0.01410
777.00,-0.01410
777.50,-0.01402
778.00,-0.01399
778.50,-0.01393
779.00,-0.01382
779.50,-0.01379
780.00,-0.01364
780.50,-0.01361
781.00,-0.01363
781.50,-0.01367
782.00,-0.01384
782.50,-0.01382
783.00,-0.01376
783.50,-0.01372
784.00,-0.01373
784.50,-0.01382
785.00,-0.01381
785.50,-0.01385
786.00,-0.01382
786.50,-0.01387
787.00,-0.01385
787.50,-0.01393
788.00,-0.01382
788.50,-0.01385
789.00,-0.01401
789.50,-0.01398
790.00,-0.01401
790.50,-0.01410
791.00,-0.01416
791.50,-0.01424
792.00,-0.01430
792.50,-0.01433
793.00,-0.01443
793.50,-0.01443
794.00,-0.01453
794.50,-0.01460
795.00,-0.01466
795.50,-0.01456
796.00,-0.01453
796.50,-0.01448
797.00,-0.01465
797.50,-0.01474
798.00,-0.01483
798.50,-0.01489
799.00,-0.01486
799.50,-0.01479
800.00,-0.01465
800.50,-0.01474
801.00,-0.01486
801.50,-0.01492
802.00,-0.01486
802.50,-0.01462
803.00,-0.01448
803.50,-0.01457
804.00,-0.01465
804.50,-0.01457
805.00,-0.01448
805.50,-0.01442
806.00,-0.01434
806.50,-0.01428
807.00,-0.01422
807.50,-0.01419
808.00,-0.01414
808.50,-0.01407
809.00,-0.01404
809.50,-0.01389
810.00,-0.01382
810.50,-0.01375
811.00,-0.01364
811.50,-0.01358
812.00,-0.01357
812.50,-0.01353
813.00,-0.01344
813.50,-0.01343
814.00,-0.01331
814.50,-0.01328
815.00,-0.01324
815.50,-0.01320
816.00,-0.01315
816.50,-0.01314
817.00,-0.01306
817.50,-0.01299
818.00,-0.01299
818.50,-0.01303
819.00,-0.01309
819.50,-0.01309
820.00,-0.01309
820.50,-0.01305
821.00,-0.01303
821.50,-0.01302
822.00,-0.01311
822.50,-0.01306
823.00,-0.01305
823.50,-0.01315
824.00,-0.01329
824.50,-0.01332
825.00,-0.01352
825.50,-0.01347
826.00,-0.01344
826.50,-0.01352
827.00,-0.01360
827.50,-0.01366
828.00,-0.01378
828.50,-0.01382
829.00,-0.01389
829.50,-0.01385
830.00,-0.01382
830.50,-0.01395
831.00,-0.01414
831.50,-0.01416
832.00,-0.01410
832.50,-0.01414
833.00,-0.01424
833.50,-0.01425
834.00,-0.01427
834.50,-0.01425
835.00,-0.01427
835.50,-0.01434
836.00,-0.01436
836.50,-0.01430
837.00,-0.01428
837.50,-0.01430
838.00,-0.01433
838.50,-0.01430
839.00,-0.01425
839.50,-0.01431
840.00,-0.01425
840.50,-0.01416
841.00,-0.01419
841.50,-0.01416
842.00,-0.01418
842.50,-0.01405
843.00,-0.01392
843.50,-0.01381
844.00,-0.01378
844.50,-0.01375
845.00,-0.01375
845.50,-0.01373
846.00,-0.01361
846.50,-0.01347
847.00,-0.01334
847.50,-0.01329
848.00,-0.01328
848.50,-0.01323
849.00,-0.01312
849.50,-0.01305
850.00,-0.01303
850.50,-0.01282
851.00,-0.01270
851.50,-0.01265
852.00,-0.01254
852.50,-0.01253
853.00,-0.01245
853.50,-0.01245
854.00,-0.01239
854.50,-0.01242
855.00,-0.01237
855.50,-0.01237
856.00,-0.01248
856.50,-0.01259
857.00,-0.01254
857.50,-0.01244
858.00,-0.01239
858.50,-0.01237
859.00,-0.01236
859.50,-0.01237
860.00,-0.01237
860.50,-0.01248
861.00,-0.01262
861.50,-0.01259
862.00,-0.01260
862.50,-0.01271
863.00,-0.01277
863.50,-0.01280
864.00,-0.01277
864.50,-0.01276
865.00,-0.01276
865.50,-0.01291
866.00,-0.01317
866.50,-0.01321
867.00,-0.01314
867.50,-0.01317
868.00,-0.01329
868.50,-0.01340
869.00,-0.01344
869.50,-0.01344
870.00,-0.01343
870.50,-0.01346
871.00,-0.01357
871.50,-0.01373
872.00,-0.01381
872.50,-0.01378
873.00,-0.01384
873.50,-0.01382
874.00,-0.01381
874.50,-0.01387
875.00,-0.01392
875.50,-0.01392
876.00,-0.01393
876.50,-0.01387
877.00,-0.01387
877.50,-0.01390
878.00,-0.01392
878.50,-0.01390
879.00,-0.01392
879.50,-0.01389
880.00,-0.01390
880.50,-0.01376
881.00,-0.01364
881.50,-0.01364
882.00,-0.01357
882.50,-0.01353
883.00,-0.01352
883.50,-0.01355
884.00,-0.01340
884.50,-0.01329
885.00,-0.01324
885.50,-0.01308
886.00,-0.01295
886.50,-0.01288
887.00,-0.01292
887.50,-0.01282
888.00,-0.01276
888.50,-0.01282
889.00,-0.01283
889.50,-0.01279
890.00,-0.01273
890.50,-0.01266
891.00,-0.01244
891.50,-0.01222
892.00,-0.01210
892.50,-0.01202
893.00,-0.01199
893.50,-0.01195
894.00,-0.01193
894.50,-0.01202
895.00,-0.01212
895.50,-0.01204
896.00,-0.01198
896.50,-0.01192
897.00,-0.01178
897.50,-0.01164
898.00,-0.01169
898.50,-0.01183
899.00,-0.01187
899.50,-0.01184
900.00,-0.01186
900.50,-0.01172
901.00,-0.01160
901.50,-0.01170
902.00,-0.01183
902.50,-0.01195
903.00,-0.01198
903.50,-0.01193
904.00,-0.01186
904.50,-0.01189
905.00,-0.01195
905.50,-0.01201
906.00,-0.01202
906.50,-0.01198
907.00,-0.01196
907.50,-0.01216
908.00,-0.01241
908.50,-0.01230
909.00,-0.01218
909.50,-0.01242
910.00,-0.01270
910.50,-0.01263
911.00,-0.01256
911.50,-0.01268
912.00,-0.01297
912.50,-0.01299
913.00,-0.01294
913.50,-0.01285
914.00,-0.01279
914.50,-0.01309
915.00,-0.01332
915.50,-0.01320
916.00,-0.01309
916.50,-0.01315
917.00,-0.01328
917.50,-0.01343
918.00,-0.01352
918.50,-0.01337
919.00,-0.01315
919.50,-0.01334
920.00,-0.01344
920.50,-0.01347
921.00,-0.01349
921.50,-0.01347
922.00,-0.01355
922.50,-0.01357
923.00,-0.01343
923.50,-0.01344
924.00,-0.01350
924.50,-0.01340
925.00,-0.01337
925.50,-0.01338
926.00,-0.01344
926.50,-0.01335
927.00,-0.01309
927.50,-0.01312
928.00,-0.01320
928.50,-0.01314
929.00,-0.01300
929.50,-0.01309
930.00,-0.01311
930.50,-0.01294
931.00,-0.01279
931.50,-0.01279
932.00,-0.01282
932.50,-0.01262
933.00,-0.01239
933.50,-0.01227
934.00,-0.01224
934.50,-0.01224
935.00,-0.01228
935.50,-0.01212
936.00,-0.01196
936.50,-0.01198
937.00,-0.01199
937.50,-0.01186
938.00,-0.01172
938.50,-0.01172
939.00,-0.01170
939.50,-0.01154
940.00,-0.01135
940.50,-0.01140
941.00,-0.01147
941.50,-0.01138
942.00,-0.01131
942.50,-0.01125
943.00,-0.01106
943.50,-0.01117
944.00,-0.01125
944.50,-0.01120
945.00,-0.01112
945.50,-0.01114
946.00,-0.01108
946.50,-0.01111
947.00,-0.01112
947.50,-0.01108
948.00,-0.01102
948.50,-0.01103
949.00,-0.01114
949.50,-0.01126
950.00,-0.01125
950.50,-0.01125
951.00,-0.01120
951.50,-0.01125
952.00,-0.01128
952.50,-0.01123
953.00,-0.01134
953.50,-0.01146
954.00,-0.01158
954.50,-0.01167
955.00,-0.01166
955.50,-0.01176
956.00,-0.01181
956.50,-0.01181
957.00,-0.01186
957.50,-0.01192
958.00,-0.01190
958.50,-0.01202
959.00,-0.01212
959.50,-0.01218
960.00,-0.01221
960.50,-0.01231
961.00,-0.01239
961.50,-0.01237
962.00,-0.01250
962.50,-0.01268
963.00,-0.01271
963.50,-0.01276
964.00,-0.01286
964.50,-0.01285
965.00,-0.01292
965.50,-0.01297
966.00,-0.01302
966.50,-0.01295
967.00,-0.01291
967.50,-0.01299
968.00,-0.01309
968.50,-0.01312
969.00,-0.01314
969.50,-0.01311
970.00,-0.01309
970.50,-0.01303
971.00,-0.01300
971.50,-0.01300
972.00,-0.01292
972.50,-0.01306
973.00,-0.01309
973.50,-0.01308
974.00,-0.01305
974.50,-0.01309
975.00,-0.01311
975.50,-0.01308
976.00,-0.01299
976.50,-0.01286
977.00,-0.01271
977.50,-0.01274
978.00,-0.01266
978.50,-0.01266
979.00,-0.01266
979.50,-0.01265
980.00,-0.01263
980.50,-0.01253
981.00,-0.01250
981.50,-0.01234
982.00,-0.01216
982.50,-0.01204
983.00,-0.01193
983.50,-0.01186
984.00,-0.01180
984.50,-0.01170
985.00,-0.01161
985.50,-0.01157
986.00,-0.01152
986.50,-0.01147
987.00,-0.01132
987.50,-0.01137
988.00,-0.01135
988.50,-0.01135
989.00,-0.01126
989.50,-0.01117
990.00,-0.01102
990.50,-0.01099
991.00,-0.01094
991.50,-0.01088
992.00,-0.01083
992.50,-0.01074
993.00,-0.01067
993.50,-0.01067
994.00,-0.01060
994.50,-0.01057
995.00,-0.01054
995.50,-0.01054
996.00,-0.01056
996.50,-0.01053
997.00,-0.01048
997.50,-0.01051
998.00,-0.01048
998.50,-0.01050
999.00,-0.01050
999.50,-0.01053
1000.00,-0.01047
1000.50,-0.01056
1001.00,-0.01060
1001.50,-0.01062
1002.00,-0.01062
1002.50,-0.01060
1003.00,-0.01065
1003.50,-0.01071
1004.00,-0.01067
1004.50,-0.01067
1005.00,-0.01065
1005.50,-0.01070
1006.00,-0.01076
1006.50,-0.01086
1007.00,-0.01096
1007.50,-0.01099
1008.00,-0.01100
1008.50,-0.01099
1009.00,-0.01105
1009.50,-0.01112
1010.00,-0.01123
1010.50,-0.01137
1011.00,-0.01146
1011.50,-0.01151
1012.00,-0.01152
1012.50,-0.01146
1013.00,-0.01151
1013.50,-0.01157
1014.00,-0.01161
1014.50,-0.01164
1015.00,-0.01180
1015.50,-0.01184
1016.00,-0.01187
1016.50,-0.01198
1017.00,-0.01213
1017.50,-0.01212
1018.00,-0.01213
1018.50,-0.01219
1019.00,-0.01218
1019.50,-0.01219
1020.00,-0.01225
1020.50,-0.01234
1021.00,-0.01242
1021.50,-0.01231
1022.00,-0.01236
1022.50,-0.01250
1023.00,-0.01244
1023.50,-0.01244
1024.00,-0.01248
1024.50,-0.01251
1025.00,-0.01247
1025.50,-0.01248
1026.00,-0.01248
1026.50,-0.01244
1027.00,-0.01244
1027.50,-0.01245
1028.00,-0.01254
1028.50,-0.01257
1029.00,-0.01251
1029.50,-0.01248
1030.00,-0.01247
1030.50,-0.01247
1031.00,-0.01233
1031.50,-0.01227
1032.00,-0.01224
1032.50,-0.01224
1033.00,-0.01227
1033.50,-0.01224
1034.00,-0.01213
1034.50,-0.01201
1035.00,-0.01193
1035.50,-0.01187
1036.00,-0.01184
1036.50,-0.01184
1037.00,-0.01180
1037.50,-0.01172
1038.00,-0.01169
1038.50,-0.01155
1039.00,-0.01141
1039.50,-0.01132
1040.00,-0.01118
1040.50,-0.01120
1041.00,-0.01117
1041.50,-0.01111
1042.00,-0.01111
1042.50,-0.01105
1043.00,-0.01093
1043.50,-0.01083
1044.00,-0.01071
1044.50,-0.01060
1045.00,-0.01053
1045.50,-0.01048
1046.00,-0.01041
1046.50,-0.01041
1047.00,-0.01042
1047.50,-0.01028
1048.00,-0.01019
1048.50,-0.01013
1049.00,-0.01013
1049.50,-0.01015
1050.00,-0.01022
1050.50,-0.01012
1051.00,-0.01004
1051.50,-0.00984
1052.00,-0.00963
1052.50,-0.00961
1053.00,-0.00974
1053.50,-0.00984
1054.00,-0.00984
1054.50,-0.00963
1055.00,-0.00934
1055.50,-0.00940
1056.00,-0.00955
1056.50,-0.00963
1057.00,-0.00972
1057.50,-0.00954
1058.00,-0.00934
1058.50,-0.00932
1059.00,-0.00937
1059.50,-0.00952
1060.00,-0.00958
1060.50,-0.00954
1061.00,-0.00955
1061.50,-0.00948
1062.00,-0.00943
1062.50,-0.00957
1063.00,-0.00972
1063.50,-0.00980
1064.00,-0.00977
1064.50,-0.00975
1065.00,-0.00983
1065.50,-0.00987
1066.00,-0.00999
1066.50,-0.01003
1067.00,-0.00996
1067.50,-0.00998
1068.00,-0.01003
1068.50,-0.01016
1069.00,-0.01025
1069.50,-0.01021
1070.00,-0.01022
1070.50,-0.01035
1071.00,-0.01048
1071.50,-0.01056
1072.00,-0.01065
1072.50,-0.01068
1073.00,-0.01071
1073.50,-0.01080
1074.00,-0.01086
1074.50,-0.01083
1075.00,-0.01083
1075.50,-0.01100
1076.00,-0.01117
1076.50,-0.01109
1077.00,-0.01096
1077.50,-0.01103
1078.00,-0.01128
1078.50,-0.01138
1079.00,-0.01140
1079.50,-0.01141
1080.00,-0.01140
1080.50,-0.01160
1081.00,-0.01180
1081.50,-0.01166
1082.00,-0.01137
1082.50,-0.01143
1083.00,-0.01158
1083.50,-0.01176
1084.00,-0.01180
1084.50,-0.01170
1085.00,-0.01170
1085.50,-0.01178
1086.00,-0.01189
1086.50,-0.01186
1087.00,-0.01173
1087.50,-0.01176
1088.00,-0.01175
1088.50,-0.01178
1089.00,-0.01193
1089.50,-0.01196
1090.00,-0.01187
1090.50,-0.01181
1091.00,-0.01178
1091.50,-0.01176
1092.00,-0.01181
1092.50,-0.01180
1093.00,-0.01173
1093.50,-0.01166
1094.00,-0.01167
1094.50,-0.01161
1095.00,-0.01146
1095.50,-0.01138
1096.00,-0.01128
1096.50,-0.01129
1097.00,-0.01138
1097.50,-0.01125
1098.00,-0.01117
1098.50,-0.01123
1099.00,-0.01120
1099.50,-0.01114
1100.00,-0.01112
